	0,093750	-0,859375	0,593750
	0,140625	-0,828125	0,562500
	0,093750	-0,875000	0,546875
	0,109375	-0,890625	0,562500
	0,093750	-0,812500	0,531250
	0,109375	-0,875000	0,562500
	0,093750	-0,843750	0,562500
	0,109375	-0,843750	0,562500
	0,109375	-0,843750	0,562500
	0,078125	-0,859375	0,578125
	0,109375	-0,859375	0,546875
	0,109375	-0,843750	0,609375
	0,109375	-0,875000	0,578125
	0,093750	-0,859375	0,593750
	0,125000	-0,859375	0,562500
	0,078125	-0,875000	0,546875
	0,093750	-0,890625	0,578125
	0,125000	-0,828125	0,578125
	0,078125	-0,859375	0,593750
	0,093750	-0,875000	0,578125
	0,109375	-0,859375	0,562500
	0,093750	-0,843750	0,578125
	0,093750	-0,875000	0,562500
	0,109375	-0,906250	0,531250
	0,078125	-0,875000	0,562500
	0,109375	-0,859375	0,578125
	0,109375	-0,859375	0,578125
	0,093750	-0,875000	0,546875
	0,078125	-0,843750	0,562500
	0,093750	-0,843750	0,562500
	0,109375	-0,859375	0,562500
	0,156250	-0,843750	0,578125
	0,093750	-0,859375	0,593750
	0,125000	-0,843750	0,546875
	0,140625	-0,843750	0,578125
	0,093750	-0,843750	0,562500
	0,093750	-0,859375	0,578125
	0,093750	-0,859375	0,578125
	0,093750	-0,859375	0,562500
	0,125000	-0,843750	0,546875
	0,109375	-0,843750	0,562500
	0,093750	-0,828125	0,593750
	0,109375	-0,843750	0,578125
	0,093750	-0,875000	0,562500
	0,109375	-0,859375	0,562500
	0,109375	-0,828125	0,562500
	0,109375	-0,875000	0,593750
	0,109375	-0,859375	0,562500
	0,109375	-0,859375	0,562500
	0,109375	-0,875000	0,562500
	0,125000	-0,890625	0,531250
	0,140625	-0,859375	0,609375
	0,093750	-0,859375	0,562500
	0,125000	-0,828125	0,593750
	0,140625	-0,859375	0,609375
	0,109375	-0,859375	0,546875
	0,109375	-0,859375	0,562500
	0,078125	-0,875000	0,578125
	0,109375	-0,859375	0,578125
	0,109375	-0,859375	0,593750
	0,078125	-0,859375	0,546875
	0,125000	-0,828125	0,609375
	0,093750	-0,875000	0,562500
	0,109375	-0,875000	0,546875
	0,109375	-0,843750	0,546875
	0,078125	-0,875000	0,562500
	0,109375	-0,859375	0,562500
	0,109375	-0,859375	0,546875
	0,078125	-0,859375	0,562500
	0,109375	-0,859375	0,546875
	0,093750	-0,875000	0,578125
	0,109375	-0,859375	0,546875
	0,125000	-0,890625	0,562500
	0,078125	-0,875000	0,562500
	0,109375	-0,843750	0,578125
	0,093750	-0,843750	0,562500
	0,109375	-0,875000	0,578125
	0,109375	-0,859375	0,578125
	0,109375	-0,859375	0,546875
	0,093750	-0,859375	0,593750
	0,093750	-0,875000	0,578125
	0,109375	-0,828125	0,593750
	0,140625	-0,875000	0,578125
	0,109375	-0,859375	0,562500
	0,078125	-0,890625	0,531250
	0,093750	-0,843750	0,578125
	0,156250	-0,796875	0,593750
	0,109375	-0,859375	0,578125
	0,109375	-0,859375	0,562500
	0,109375	-0,875000	0,593750
	0,093750	-0,859375	0,578125
	0,140625	-0,843750	0,578125
	0,109375	-0,828125	0,578125
	0,109375	-0,843750	0,578125
	0,093750	-0,875000	0,578125
	0,140625	-0,859375	0,546875
	0,093750	-0,859375	0,578125
	0,093750	-0,859375	0,562500
	0,125000	-0,843750	0,593750
	0,093750	-0,859375	0,562500
	0,109375	-0,875000	0,546875
	0,125000	-0,859375	0,546875
	0,140625	-0,812500	0,562500
	0,078125	-0,875000	0,546875
	0,109375	-0,890625	0,562500
	0,093750	-0,859375	0,562500
	0,109375	-0,875000	0,578125
	0,109375	-0,859375	0,578125
	0,093750	-0,843750	0,531250
	0,125000	-0,843750	0,562500
	0,078125	-0,875000	0,578125
	0,171875	-0,828125	0,609375
	0,109375	-0,859375	0,546875
	0,109375	-0,906250	0,546875
	0,093750	-0,859375	0,578125
	0,109375	-0,890625	0,562500
	0,109375	-0,875000	0,562500
	0,109375	-0,859375	0,562500
	0,109375	-0,859375	0,562500
	0,125000	-0,859375	0,562500
	0,109375	-0,859375	0,546875
	0,093750	-0,859375	0,609375
	0,125000	-0,828125	0,578125
	0,109375	-0,875000	0,562500
	0,125000	-0,828125	0,562500
	0,093750	-0,875000	0,546875
	0,093750	-0,859375	0,546875
	0,093750	-0,875000	0,562500
	0,093750	-0,859375	0,578125
	0,109375	-0,875000	0,546875
	0,093750	-0,859375	0,546875
	0,125000	-0,828125	0,593750
	0,078125	-0,859375	0,593750
	0,093750	-0,859375	0,578125
	0,140625	-0,812500	0,593750
	0,093750	-0,875000	0,562500
	0,109375	-0,875000	0,562500
	0,109375	-0,859375	0,531250
	0,125000	-0,875000	0,562500
	0,093750	-0,859375	0,546875
	0,109375	-0,875000	0,562500
	0,156250	-0,828125	0,546875
	0,078125	-0,875000	0,515625
	0,109375	-0,859375	0,562500
	0,140625	-0,859375	0,546875
	0,109375	-0,875000	0,562500
	0,093750	-0,875000	0,578125
	0,093750	-0,890625	0,531250
	0,093750	-0,875000	0,562500
	0,125000	-0,859375	0,562500
	0,093750	-0,843750	0,578125
	0,109375	-0,859375	0,593750
	0,093750	-0,828125	0,593750
	0,093750	-0,812500	0,562500
	0,093750	-0,875000	0,515625
	0,078125	-0,859375	0,562500
	0,062500	-0,859375	0,453125
	0,078125	-0,875000	0,453125
	0,062500	-0,875000	0,468750
	0,078125	-0,906250	0,453125
	0,109375	-0,890625	0,515625
	0,187500	-0,890625	0,531250
	0,125000	-0,890625	0,484375
	0,140625	-0,890625	0,484375
	0,125000	-0,843750	0,453125
	0,109375	-0,875000	0,437500
	0,093750	-0,875000	0,453125
	0,093750	-0,890625	0,453125
	0,125000	-0,906250	0,453125
	0,093750	-0,921875	0,453125
	0,109375	-0,921875	0,421875
	0,125000	-0,906250	0,437500
	0,125000	-0,937500	0,421875
	0,078125	-0,937500	0,453125
	0,125000	-0,984375	0,437500
	0,093750	-0,968750	0,437500
	0,109375	-0,968750	0,437500
	0,078125	-0,984375	0,453125
	0,109375	-0,953125	0,453125
	0,093750	-0,968750	0,468750
	0,078125	-0,937500	0,484375
	0,109375	-0,875000	0,531250
	0,093750	-0,890625	0,500000
	0,046875	-0,906250	0,484375
	0,062500	-0,890625	0,484375
	0,031250	-0,953125	0,437500
	0,093750	-0,828125	0,500000
	0,062500	-0,890625	0,484375
	0,078125	-0,906250	0,515625
	0,078125	-0,906250	0,515625
	0,125000	-0,921875	0,453125
	0,140625	-0,843750	0,421875
	0,109375	-0,906250	0,375000
	0,109375	-0,937500	0,375000
	0,109375	-0,953125	0,343750
	0,078125	-0,968750	0,328125
	0,062500	-0,984375	0,296875
	0,046875	-0,968750	0,281250
	0,062500	-1,000000	0,281250
	0,062500	-0,984375	0,265625
	0,062500	-0,984375	0,250000
	0,093750	-0,968750	0,250000
	0,078125	-1,000000	0,250000
	0,093750	-0,968750	0,250000
	0,078125	-1,015625	0,265625
	0,078125	-1,000000	0,265625
	0,109375	-1,015625	0,234375
	0,078125	-1,046875	0,234375
	0,093750	-1,031250	0,234375
	0,109375	-1,062500	0,250000
	0,093750	-1,046875	0,250000
	0,140625	-0,968750	0,234375
	0,093750	-1,000000	0,156250
	0,125000	-1,015625	0,171875
	0,078125	-0,968750	0,187500
	0,078125	-1,031250	0,156250
	0,062500	-1,031250	0,156250
	0,062500	-1,015625	0,093750
	0,078125	-1,015625	0,109375
	0,062500	-1,046875	0,140625
	0,062500	-1,015625	0,093750
	0,078125	-1,031250	0,156250
	0,062500	-1,015625	0,125000
	0,031250	-0,984375	0,156250
	0,062500	-0,968750	0,156250
	0,046875	-1,000000	0,171875
	0,078125	-1,031250	0,156250
	0,093750	-1,031250	0,125000
	0,078125	-1,062500	0,125000
	0,093750	-1,046875	0,078125
	0,062500	-1,062500	0,125000
	0,062500	-1,046875	0,109375
	0,062500	-1,093750	0,078125
	0,062500	-1,078125	0,078125
	0,078125	-1,078125	0,046875
	0,015625	-1,078125	0,062500
	0,046875	-1,078125	-0,000000
	0,046875	-1,109375	0,015625
	0,062500	-1,046875	0,046875
	0,093750	-1,046875	0,078125
	0,093750	-1,062500	0,078125
	0,125000	-1,031250	0,078125
	0,125000	-1,046875	0,046875
	0,140625	-1,046875	0,078125
	0,156250	-1,046875	0,062500
	0,140625	-1,046875	0,046875
	0,125000	-1,031250	0,015625
	0,109375	-1,031250	0,015625
	0,093750	-1,031250	-0,015625
	0,109375	-1,031250	-0,015625
	0,078125	-1,015625	-0,015625
	0,062500	-1,031250	-0,062500
	0,078125	-1,000000	-0,031250
	0,109375	-1,031250	-0,093750
	0,062500	-1,078125	-0,125000
	0,062500	-1,046875	-0,093750
	0,078125	-1,046875	-0,093750
	0,093750	-1,000000	-0,125000
	0,093750	-1,015625	-0,093750
	0,109375	-1,015625	-0,125000
	0,093750	-1,000000	-0,125000
	0,093750	-0,984375	-0,093750
	0,078125	-1,015625	-0,140625
	0,062500	-1,000000	-0,109375
	0,062500	-1,031250	-0,093750
	0,062500	-1,046875	-0,046875
	0,062500	-1,046875	-0,031250
	0,046875	-1,046875	0,015625
	0,062500	-1,078125	-0,015625
	0,093750	-1,062500	-0,015625
	0,093750	-1,062500	0,015625
	0,093750	-1,031250	0,031250
	0,140625	-1,046875	-0,000000
	0,109375	-1,046875	0,015625
	0,109375	-1,031250	0,046875
	0,125000	-1,031250	0,046875
	0,125000	-1,062500	0,031250
	0,109375	-1,078125	0,062500
	0,109375	-1,093750	0,031250
	0,093750	-1,109375	0,031250
	0,078125	-1,109375	0,015625
	0,062500	-1,093750	0,015625
	0,062500	-1,078125	0,015625
	0,062500	-1,046875	-0,031250
	0,093750	-1,062500	-0,015625
	0,062500	-1,062500	-0,031250
	0,109375	-0,968750	-0,015625
	0,062500	-1,046875	-0,046875
	0,093750	-1,031250	-0,078125
	0,078125	-1,031250	-0,078125
	0,062500	-1,031250	-0,078125
	0,078125	-1,031250	-0,062500
	0,109375	-1,062500	-0,093750
	0,093750	-1,062500	-0,062500
	0,062500	-1,015625	-0,062500
	0,078125	-1,062500	-0,062500
	0,109375	-1,062500	-0,046875
	0,062500	-1,046875	-0,031250
	0,062500	-1,046875	-0,031250
	0,078125	-1,015625	-0,031250
	0,093750	-1,031250	-0,000000
	0,109375	-1,000000	0,062500
	0,125000	-1,015625	0,031250
	0,093750	-1,031250	0,046875
	0,125000	-1,015625	0,031250
	0,078125	-1,078125	0,046875
	0,125000	-1,031250	0,046875
	0,125000	-1,062500	0,109375
	0,109375	-1,062500	0,109375
	0,125000	-1,078125	0,109375
	0,109375	-1,062500	0,140625
	0,140625	-0,968750	0,156250
	0,109375	-1,031250	0,156250
	0,093750	-1,015625	0,187500
	0,093750	-1,000000	0,218750
	0,125000	-1,000000	0,218750
	0,093750	-1,000000	0,250000
	0,109375	-1,000000	0,250000
	0,093750	-1,000000	0,250000
	0,078125	-0,984375	0,281250
	0,109375	-1,000000	0,296875
	0,093750	-0,953125	0,359375
	0,078125	-1,000000	0,296875
	0,062500	-0,984375	0,328125
	0,093750	-1,000000	0,328125
	0,062500	-0,953125	0,343750
	0,062500	-0,968750	0,328125
	0,093750	-0,953125	0,328125
	0,093750	-0,953125	0,328125
	0,078125	-0,906250	0,296875
	0,125000	-0,921875	0,296875
	0,093750	-0,937500	0,328125
	0,109375	-0,953125	0,281250
	0,062500	-0,984375	0,234375
	0,109375	-0,984375	0,281250
	0,093750	-1,015625	0,250000
	0,109375	-1,000000	0,234375
	0,093750	-1,000000	0,234375
	0,093750	-1,031250	0,250000
	0,109375	-1,046875	0,218750
	0,062500	-1,031250	0,218750
	0,125000	-0,984375	0,234375
	0,109375	-1,031250	0,250000
	0,140625	-1,031250	0,250000
	0,125000	-0,984375	0,265625
	0,093750	-1,000000	0,296875
	0,125000	-0,984375	0,296875
	0,125000	-0,953125	0,281250
	0,125000	-0,953125	0,312500
	0,140625	-0,890625	0,312500
	0,125000	-0,921875	0,312500
	0,140625	-0,906250	0,328125
	0,171875	-0,906250	0,343750
	0,140625	-0,953125	0,328125
	0,140625	-0,984375	0,328125
	0,140625	-0,953125	0,296875
	0,125000	-0,968750	0,312500
	0,109375	-0,984375	0,328125
	0,125000	-0,968750	0,375000
	0,109375	-0,968750	0,343750
	0,093750	-0,984375	0,343750
	0,093750	-1,000000	0,343750
	0,109375	-1,015625	0,359375
	0,140625	-1,046875	0,343750
	0,093750	-1,031250	0,343750
	0,125000	-0,968750	0,328125
	0,062500	-0,921875	0,328125
	0,093750	-0,906250	0,312500
	0,109375	-0,921875	0,343750
	0,125000	-0,953125	0,375000
	0,093750	-1,046875	0,375000
	0,125000	-1,015625	0,375000
	0,078125	-1,093750	0,359375
	0,062500	-1,093750	0,328125
	0,015625	-1,015625	0,328125
	0,046875	-0,968750	0,328125
	0,046875	-0,937500	0,328125
	0,015625	-0,953125	0,328125
	0,046875	-0,906250	0,343750
	0,031250	-0,921875	0,343750
	0,046875	-0,953125	0,359375
	0,046875	-0,953125	0,375000
	0,078125	-1,000000	0,328125
	0,078125	-0,968750	0,343750
	0,093750	-0,968750	0,343750
	0,109375	-0,968750	0,328125
	0,078125	-0,968750	0,328125
	0,125000	-0,953125	0,328125
	0,125000	-0,953125	0,312500
	0,125000	-0,937500	0,328125
	0,140625	-0,953125	0,328125
	0,156250	-0,921875	0,359375
	0,125000	-0,937500	0,296875
	0,109375	-0,953125	0,328125
	0,109375	-0,968750	0,296875
	0,109375	-0,984375	0,312500
	0,109375	-0,953125	0,296875
	0,093750	-0,968750	0,312500
	0,109375	-0,984375	0,328125
	0,109375	-1,031250	0,312500
	0,109375	-1,015625	0,296875
	0,156250	-0,984375	0,328125
	0,093750	-1,015625	0,328125
	0,093750	-1,015625	0,343750
	0,140625	-0,968750	0,359375
	0,093750	-1,000000	0,328125
	0,109375	-0,968750	0,375000
	0,125000	-0,984375	0,375000
	0,125000	-0,953125	0,390625
	0,109375	-0,968750	0,390625
	0,109375	-0,968750	0,390625
	0,078125	-0,953125	0,343750
	0,093750	-0,984375	0,359375
	0,078125	-0,968750	0,359375
	0,078125	-0,937500	0,375000
	0,125000	-0,984375	0,390625
	0,109375	-0,984375	0,359375
	0,109375	-0,953125	0,328125
	0,109375	-0,937500	0,296875
	0,109375	-0,968750	0,328125
	0,093750	-0,968750	0,343750
	0,109375	-0,953125	0,328125
	0,109375	-1,000000	0,312500
	0,109375	-0,984375	0,281250
	0,078125	-1,031250	0,265625
	0,109375	-1,000000	0,312500
	0,109375	-0,953125	0,328125
	0,109375	-1,000000	0,312500
	0,109375	-0,984375	0,328125
	0,093750	-0,968750	0,343750
	0,093750	-0,968750	0,328125
	0,109375	-0,968750	0,359375
	0,093750	-0,937500	0,343750
	0,109375	-0,953125	0,359375
	0,109375	-0,953125	0,359375
	0,093750	-0,968750	0,343750
	0,093750	-0,984375	0,359375
	0,093750	-0,968750	0,343750
	0,109375	-0,984375	0,359375
	0,109375	-1,000000	0,328125
	0,109375	-0,953125	0,328125
	0,109375	-0,906250	0,375000
	0,093750	-0,984375	0,328125
	0,109375	-0,968750	0,296875
	0,093750	-1,000000	0,296875
	0,109375	-0,984375	0,328125
	0,109375	-0,953125	0,312500
	0,109375	-0,984375	0,343750
	0,093750	-0,984375	0,328125
	0,109375	-0,968750	0,312500
	0,109375	-1,000000	0,343750
	0,140625	-0,937500	0,343750
	0,125000	-0,968750	0,328125
	0,109375	-0,953125	0,343750
	0,109375	-0,953125	0,343750
	0,140625	-0,953125	0,343750
	0,125000	-1,000000	0,359375
	0,125000	-0,984375	0,328125
	0,109375	-0,968750	0,343750
	0,109375	-0,968750	0,328125
	0,109375	-0,968750	0,328125
	0,093750	-0,968750	0,328125
	0,093750	-0,984375	0,328125
	0,093750	-1,000000	0,328125
	0,078125	-1,000000	0,343750
	0,109375	-0,984375	0,328125
	0,093750	-0,968750	0,343750
	0,093750	-0,984375	0,328125
	0,109375	-0,984375	0,312500
	0,078125	-0,968750	0,328125
	0,093750	-0,953125	0,343750
	0,125000	-0,921875	0,375000
	0,109375	-0,968750	0,343750
	0,109375	-0,968750	0,328125
	0,093750	-0,984375	0,343750
	0,093750	-0,968750	0,359375
	0,109375	-0,984375	0,328125
	0,093750	-0,968750	0,343750
	0,109375	-0,984375	0,359375
	0,109375	-0,984375	0,328125
	0,078125	-0,984375	0,343750
	0,109375	-0,984375	0,390625
	0,109375	-0,968750	0,359375
	0,125000	-0,984375	0,328125
	0,109375	-0,968750	0,312500
	0,093750	-0,984375	0,343750
	0,109375	-0,968750	0,328125
	0,109375	-0,968750	0,328125
	0,093750	-0,968750	0,328125
	0,093750	-0,968750	0,343750
	0,125000	-0,937500	0,343750
	0,140625	-0,953125	0,359375
	0,078125	-0,984375	0,328125
	0,093750	-0,968750	0,343750
	0,109375	-0,968750	0,312500
	0,125000	-0,984375	0,343750
	0,093750	-0,968750	0,328125
	0,125000	-0,968750	0,328125
	0,109375	-1,000000	0,343750
	0,109375	-0,984375	0,328125
	0,093750	-0,953125	0,328125
	0,109375	-0,921875	0,343750
	0,109375	-0,953125	0,359375
	0,109375	-0,984375	0,312500
	0,093750	-0,968750	0,343750
	0,125000	-0,984375	0,359375
	0,093750	-0,984375	0,343750
	0,093750	-0,968750	0,343750
	0,109375	-0,968750	0,359375
	0,109375	-0,968750	0,343750
	0,109375	-0,984375	0,343750
	0,125000	-0,984375	0,343750
	0,078125	-1,000000	0,343750
	0,109375	-1,000000	0,375000
	0,109375	-1,000000	0,328125
	0,062500	-1,000000	0,343750
	0,093750	-0,953125	0,328125
	0,078125	-0,984375	0,343750
	0,093750	-0,953125	0,343750
	0,109375	-0,937500	0,343750
	0,109375	-0,984375	0,359375
	0,171875	-1,000000	0,406250
	0,093750	-0,984375	0,359375
	0,109375	-1,000000	0,343750
	0,093750	-0,968750	0,328125
	0,109375	-0,984375	0,328125
	0,109375	-1,000000	0,359375
	0,093750	-0,984375	0,343750
	0,093750	-0,968750	0,343750
	0,109375	-0,968750	0,343750
	0,093750	-0,968750	0,343750
	0,109375	-0,953125	0,375000
	0,109375	-0,968750	0,343750
	0,109375	-0,968750	0,312500
	0,093750	-0,968750	0,343750
	0,109375	-0,968750	0,343750
	0,109375	-0,953125	0,343750
	0,093750	-0,953125	0,343750
	0,093750	-0,968750	0,343750
	0,093750	-0,968750	0,359375
	0,093750	-0,968750	0,375000
	0,109375	-0,906250	0,375000
	0,125000	-0,968750	0,343750
	0,109375	-0,984375	0,359375
	0,125000	-1,000000	0,343750
	0,125000	-0,953125	0,359375
	0,109375	-0,984375	0,359375
	0,093750	-0,968750	0,343750
	0,109375	-0,984375	0,359375
	0,125000	-0,968750	0,359375
	0,109375	-0,968750	0,328125
	0,140625	-0,953125	0,375000
	0,109375	-0,968750	0,359375
	0,125000	-0,968750	0,343750
	0,093750	-0,984375	0,375000
	0,125000	-0,953125	0,343750
	0,109375	-0,968750	0,343750
	0,078125	-0,984375	0,328125
	0,109375	-0,953125	0,343750
	0,109375	-0,984375	0,375000
	0,093750	-0,953125	0,328125
	0,109375	-0,968750	0,375000
	0,109375	-1,000000	0,343750
	0,109375	-0,984375	0,343750
	0,078125	-0,968750	0,359375
	0,125000	-0,984375	0,343750
	0,109375	-0,984375	0,343750
	0,078125	-0,968750	0,343750
	0,109375	-0,968750	0,343750
	0,109375	-0,984375	0,359375
	0,109375	-0,968750	0,343750
	0,140625	-0,953125	0,359375
	0,109375	-0,968750	0,359375
	0,140625	-0,968750	0,343750
	0,093750	-0,953125	0,343750
	0,093750	-0,968750	0,343750
	0,093750	-0,968750	0,328125
	0,093750	-0,953125	0,343750
	0,109375	-0,968750	0,343750
	0,109375	-1,000000	0,343750
	0,109375	-0,953125	0,343750
	0,125000	-0,953125	0,359375
	0,156250	-0,953125	0,328125
	0,093750	-0,968750	0,343750
	0,078125	-1,000000	0,343750
	0,109375	-0,968750	0,359375
	0,140625	-0,953125	0,375000
	0,109375	-0,984375	0,343750
	0,125000	-0,984375	0,328125
	0,109375	-0,984375	0,343750
	0,093750	-0,968750	0,375000
	0,125000	-0,968750	0,343750
	0,125000	-0,968750	0,359375
	0,109375	-0,984375	0,343750
	0,109375	-0,968750	0,375000
	0,109375	-1,000000	0,359375
	0,109375	-0,984375	0,343750
	0,093750	-0,953125	0,343750
	0,093750	-0,953125	0,343750
	0,125000	-0,984375	0,343750
	0,109375	-0,968750	0,359375
	0,125000	-0,953125	0,390625
	0,093750	-0,937500	0,359375
	0,109375	-0,984375	0,359375
	0,093750	-0,984375	0,343750
	0,109375	-0,953125	0,343750
	0,093750	-0,968750	0,375000
	0,125000	-0,984375	0,343750
	0,109375	-0,984375	0,328125
	0,078125	-0,968750	0,343750
	0,125000	-0,968750	0,343750
	0,109375	-0,968750	0,343750
	0,093750	-0,906250	0,343750
	0,078125	-0,968750	0,359375
	0,140625	-0,968750	0,359375
	0,093750	-0,968750	0,343750
	0,109375	-0,968750	0,375000
	0,125000	-0,968750	0,343750
	0,125000	-0,968750	0,343750
	0,125000	-0,968750	0,343750
	0,109375	-0,953125	0,343750
	0,125000	-0,937500	0,359375
	0,109375	-0,984375	0,375000
	0,109375	-0,953125	0,343750
	0,078125	-0,984375	0,328125
	0,093750	-0,968750	0,343750
	0,109375	-0,953125	0,328125
	0,125000	-1,000000	0,375000
	0,078125	-0,968750	0,359375
	0,109375	-0,953125	0,343750
	0,078125	-0,984375	0,343750
	0,125000	-0,937500	0,390625
	0,109375	-0,984375	0,359375
	0,125000	-0,968750	0,328125
	0,140625	-0,937500	0,359375
	0,125000	-0,984375	0,328125
	0,093750	-0,953125	0,328125
	0,125000	-0,937500	0,343750
	0,109375	-0,937500	0,359375
	0,109375	-0,968750	0,343750
	0,109375	-0,984375	0,343750
	0,109375	-0,953125	0,328125
	0,078125	-0,968750	0,343750
	0,109375	-0,937500	0,343750
	0,140625	-0,968750	0,328125
	0,046875	-0,984375	0,296875
	0,125000	-0,968750	0,328125
	0,093750	-0,984375	0,328125
	0,093750	-0,968750	0,343750
	0,109375	-0,984375	0,359375
	0,109375	-0,984375	0,343750
	0,109375	-0,937500	0,359375
	0,093750	-0,984375	0,359375
	0,093750	-0,968750	0,343750
	0,093750	-0,984375	0,343750
	0,109375	-0,968750	0,359375
	0,109375	-0,953125	0,328125
	0,125000	-0,968750	0,343750
	0,093750	-0,953125	0,359375
	0,109375	-0,984375	0,359375
	0,093750	-0,953125	0,328125
	0,109375	-0,937500	0,359375
	0,109375	-0,984375	0,359375
	0,109375	-0,984375	0,343750
	0,093750	-0,984375	0,281250
	0,109375	-0,984375	0,343750
	0,109375	-0,968750	0,343750
	0,125000	-0,984375	0,328125
	0,125000	-0,968750	0,312500
	0,109375	-0,921875	0,328125
	0,093750	-0,968750	0,343750
	0,140625	-0,937500	0,375000
	0,093750	-0,984375	0,375000
	0,109375	-0,984375	0,343750
	0,109375	-0,984375	0,328125
	0,093750	-0,984375	0,343750
	0,109375	-0,984375	0,328125
	0,109375	-0,937500	0,328125
	0,093750	-0,937500	0,359375
	0,109375	-0,968750	0,343750
	0,093750	-0,984375	0,343750
	0,125000	-0,968750	0,390625
	0,109375	-0,968750	0,375000
	0,093750	-0,968750	0,343750
	0,093750	-0,984375	0,328125
	0,109375	-0,953125	0,359375
	0,125000	-0,953125	0,359375
	0,140625	-0,890625	0,390625
	0,093750	-0,968750	0,359375
	0,125000	-0,968750	0,343750
	0,093750	-0,968750	0,343750
	0,109375	-0,968750	0,343750
	0,109375	-0,984375	0,359375
	0,140625	-0,937500	0,328125
	0,093750	-0,968750	0,343750
	0,109375	-0,984375	0,343750
	0,093750	-0,968750	0,343750
	0,140625	-0,984375	0,359375
	0,125000	-0,984375	0,375000
	0,109375	-0,968750	0,343750
	0,093750	-0,984375	0,343750
	0,156250	-0,937500	0,359375
	0,109375	-0,984375	0,375000
	0,125000	-0,984375	0,328125
	0,093750	-1,000000	0,343750
	0,109375	-0,984375	0,343750
	0,109375	-0,984375	0,343750
	0,109375	-0,953125	0,359375
	0,078125	-0,953125	0,359375
	0,109375	-0,968750	0,328125
	0,125000	-0,984375	0,343750
	0,125000	-0,921875	0,375000
	0,125000	-0,953125	0,375000
	0,109375	-0,968750	0,328125
	0,109375	-0,968750	0,359375
	0,093750	-0,968750	0,296875
	0,093750	-0,953125	0,312500
	0,125000	-0,953125	0,343750
	0,093750	-0,984375	0,359375
	0,093750	-0,968750	0,328125
	0,109375	-0,984375	0,328125
	0,156250	-0,906250	0,375000
	0,109375	-0,984375	0,343750
	0,062500	-0,984375	0,328125
	0,078125	-0,968750	0,343750
	0,125000	-1,000000	0,328125
	0,093750	-0,984375	0,312500
	0,093750	-1,000000	0,328125
	0,109375	-0,953125	0,312500
	0,125000	-0,984375	0,375000
	0,093750	-0,968750	0,343750
	0,125000	-0,921875	0,359375
	0,125000	-0,937500	0,343750
	0,093750	-0,984375	0,359375
	0,109375	-1,000000	0,375000
	0,109375	-0,953125	0,343750
	0,109375	-0,968750	0,343750
	0,109375	-0,968750	0,343750
	0,093750	-0,968750	0,328125
	0,109375	-0,953125	0,328125
	0,109375	-0,968750	0,343750
	0,140625	-0,968750	0,328125
	0,093750	-0,984375	0,375000
	0,093750	-0,953125	0,343750
	0,109375	-0,984375	0,359375
	0,140625	-0,968750	0,359375
	0,109375	-0,968750	0,312500
	0,109375	-0,968750	0,359375
	0,125000	-0,984375	0,343750
	0,093750	-0,968750	0,343750
	0,093750	-0,984375	0,343750
	0,140625	-0,953125	0,375000
	0,109375	-1,000000	0,343750
	0,078125	-0,968750	0,328125
	0,109375	-0,937500	0,312500
	0,093750	-0,968750	0,343750
	0,109375	-0,984375	0,343750
	0,093750	-0,984375	0,328125
	0,109375	-0,968750	0,343750
	0,093750	-0,984375	0,328125
	0,125000	-0,968750	0,343750
	0,140625	-0,953125	0,390625
	0,109375	-0,953125	0,343750
	0,109375	-0,968750	0,343750
	0,109375	-1,000000	0,359375
	0,125000	-0,984375	0,328125
	0,078125	-1,000000	0,281250
	0,093750	-0,953125	0,343750
	0,140625	-0,984375	0,312500
	0,078125	-0,968750	0,343750
	0,109375	-0,968750	0,328125
	0,140625	-0,968750	0,328125
	0,109375	-1,000000	0,328125
	0,093750	-0,984375	0,343750
	0,078125	-1,000000	0,328125
	0,093750	-0,984375	0,328125
	0,109375	-0,968750	0,328125
	0,093750	-0,953125	0,375000
	0,109375	-0,953125	0,312500
	0,109375	-0,968750	0,312500
	0,109375	-0,984375	0,343750
	0,156250	-0,953125	0,390625
	0,125000	-0,968750	0,343750
	0,125000	-0,968750	0,328125
	0,109375	-0,953125	0,328125
	0,078125	-1,000000	0,343750
	0,140625	-0,968750	0,359375
	0,125000	-0,953125	0,375000
	0,109375	-0,968750	0,328125
	0,109375	-0,968750	0,328125
	0,125000	-0,953125	0,296875
	0,109375	-0,968750	0,390625
	0,125000	-0,953125	0,359375
	0,140625	-0,968750	0,343750
	0,093750	-0,984375	0,343750
	0,109375	-0,984375	0,328125
	0,078125	-0,968750	0,343750
	0,109375	-0,984375	0,328125
	0,109375	-0,937500	0,328125
	0,062500	-0,984375	0,343750
	0,109375	-0,968750	0,343750
	0,140625	-0,953125	0,375000
	0,109375	-0,968750	0,343750
	0,109375	-0,984375	0,328125
	0,078125	-0,984375	0,328125
	0,109375	-0,953125	0,343750
	0,093750	-0,968750	0,328125
	0,093750	-0,984375	0,328125
	0,109375	-0,968750	0,359375
	0,093750	-1,000000	0,328125
	0,140625	-0,984375	0,312500
	0,171875	-0,953125	0,359375
	0,109375	-0,953125	0,343750
	0,125000	-0,953125	0,343750
	0,125000	-0,984375	0,296875
	0,078125	-0,968750	0,312500
	0,093750	-0,953125	0,359375
	0,125000	-0,984375	0,328125
	0,109375	-0,984375	0,328125
	0,109375	-1,015625	0,312500
	0,109375	-0,984375	0,312500
	0,109375	-0,968750	0,312500
	0,078125	-0,968750	0,359375
	0,125000	-0,984375	0,343750
	0,093750	-0,968750	0,343750
	0,109375	-0,968750	0,328125
	0,093750	-0,968750	0,343750
	0,093750	-0,953125	0,343750
	0,093750	-0,984375	0,375000
	0,093750	-0,953125	0,343750
	0,109375	-0,968750	0,343750
	0,125000	-0,937500	0,390625
	0,078125	-0,968750	0,328125
	0,078125	-1,015625	0,343750
	0,109375	-0,953125	0,359375
	0,093750	-0,984375	0,328125
	0,093750	-0,968750	0,359375
	0,093750	-0,984375	0,328125
	0,093750	-0,968750	0,343750
	0,093750	-0,984375	0,328125
	0,109375	-1,000000	0,328125
	0,156250	-0,953125	0,343750
	0,109375	-0,953125	0,343750
	0,093750	-0,968750	0,343750
	0,062500	-0,984375	0,343750
	0,093750	-0,968750	0,343750
	0,109375	-0,953125	0,328125
	0,109375	-0,984375	0,343750
	0,109375	-0,984375	0,343750
	0,109375	-0,968750	0,343750
	0,109375	-0,953125	0,359375
	0,125000	-0,937500	0,343750
	0,109375	-0,968750	0,359375
	0,109375	-0,984375	0,359375
	0,109375	-0,968750	0,328125
	0,125000	-0,953125	0,343750
	0,093750	-0,968750	0,328125
	0,109375	-0,968750	0,328125
	0,109375	-0,953125	0,359375
	0,093750	-0,953125	0,359375
	0,125000	-0,984375	0,343750
	0,156250	-0,937500	0,406250
	0,125000	-0,968750	0,343750
	0,078125	-0,968750	0,328125
	0,109375	-0,968750	0,343750
	0,093750	-0,984375	0,328125
	0,109375	-0,984375	0,343750
	0,093750	-0,953125	0,343750
	0,093750	-0,968750	0,328125
	0,109375	-0,968750	0,328125
	0,109375	-1,000000	0,343750
	0,125000	-0,953125	0,359375
	0,109375	-0,937500	0,343750
	0,125000	-0,984375	0,312500
	0,093750	-0,937500	0,328125
	0,109375	-0,968750	0,328125
	0,109375	-0,968750	0,296875
	0,093750	-0,984375	0,343750
	0,093750	-0,984375	0,359375
	0,109375	-0,968750	0,328125
	0,093750	-0,984375	0,343750
	0,140625	-0,953125	0,359375
	0,093750	-0,984375	0,328125
	0,078125	-1,015625	0,343750
	0,109375	-0,984375	0,375000
	0,093750	-0,968750	0,328125
	0,171875	-0,953125	0,390625
	0,125000	-0,953125	0,359375
	0,078125	-0,984375	0,343750
	0,109375	-0,968750	0,343750
	0,109375	-0,984375	0,343750
	0,093750	-0,937500	0,359375
	0,125000	-0,984375	0,328125
	0,093750	-0,968750	0,312500
	0,109375	-0,984375	0,359375
	0,125000	-0,984375	0,343750
	0,078125	-0,984375	0,359375
	0,093750	-0,968750	0,359375
	0,109375	-0,984375	0,343750
	0,109375	-0,984375	0,343750
	0,125000	-0,953125	0,328125
	0,109375	-0,968750	0,359375
	0,125000	-0,968750	0,343750
	0,046875	-1,015625	0,312500
	0,125000	-0,953125	0,343750
	0,093750	-0,984375	0,343750
	0,093750	-0,968750	0,343750
	0,125000	-0,984375	0,328125
	0,093750	-0,953125	0,359375
	0,093750	-0,984375	0,343750
	0,078125	-0,968750	0,343750
	0,140625	-0,953125	0,359375
	0,093750	-0,968750	0,359375
	0,109375	-0,968750	0,328125
	0,109375	-0,968750	0,343750
	0,109375	-0,968750	0,328125
	0,093750	-0,984375	0,343750
	0,109375	-0,968750	0,359375
	0,093750	-0,968750	0,359375
	0,093750	-0,953125	0,343750
	0,109375	-0,968750	0,343750
	0,109375	-0,953125	0,343750
	0,125000	-0,968750	0,390625
	0,093750	-0,968750	0,328125
	0,093750	-0,968750	0,375000
	0,109375	-0,984375	0,359375
	0,109375	-0,968750	0,312500
	0,125000	-0,968750	0,343750
	0,125000	-0,968750	0,328125
	0,093750	-0,984375	0,343750
	0,093750	-0,968750	0,359375
	0,125000	-0,984375	0,359375
	0,125000	-0,968750	0,328125
	0,078125	-0,984375	0,343750
	0,109375	-0,968750	0,328125
	0,093750	-0,984375	0,343750
	0,109375	-0,953125	0,343750
	0,093750	-0,984375	0,343750
	0,093750	-0,968750	0,312500
	0,109375	-0,968750	0,343750
	0,109375	-0,984375	0,343750
	0,125000	-0,953125	0,390625
	0,109375	-0,968750	0,328125
	0,093750	-0,968750	0,343750
	0,109375	-0,953125	0,312500
	0,109375	-0,968750	0,359375
	0,078125	-0,953125	0,359375
	0,109375	-0,968750	0,328125
	0,109375	-0,953125	0,343750
	0,109375	-0,968750	0,328125
	0,093750	-0,968750	0,359375
	0,093750	-0,968750	0,359375
	0,093750	-0,968750	0,359375
	0,078125	-0,984375	0,343750
	0,109375	-0,953125	0,359375
	0,093750	-0,953125	0,328125
	0,109375	-0,968750	0,343750
	0,125000	-0,968750	0,343750
	0,093750	-0,984375	0,343750
	0,093750	-0,968750	0,312500
	0,109375	-0,984375	0,343750
	0,125000	-0,937500	0,406250
	0,093750	-0,984375	0,359375
	0,093750	-0,984375	0,359375
	0,093750	-0,984375	0,328125
	0,109375	-0,968750	0,328125
	0,093750	-0,968750	0,343750
	0,093750	-0,968750	0,328125
	0,109375	-0,984375	0,343750
	0,125000	-0,984375	0,343750
	0,093750	-0,968750	0,328125
	0,140625	-0,968750	0,375000
	0,140625	-0,968750	0,359375
	0,093750	-0,953125	0,343750
	0,125000	-1,000000	0,343750
	0,093750	-1,000000	0,328125
	0,093750	-0,937500	0,343750
	0,093750	-0,953125	0,343750
	0,109375	-0,968750	0,343750
	0,078125	-0,984375	0,375000
	0,109375	-0,984375	0,328125
	0,140625	-0,937500	0,375000
	0,093750	-0,984375	0,359375
	0,093750	-0,968750	0,328125
	0,125000	-0,984375	0,343750
	0,109375	-0,953125	0,328125
	0,171875	-0,906250	0,359375
	0,125000	-0,953125	0,328125
	0,125000	-0,968750	0,343750
	0,109375	-0,984375	0,343750
	0,109375	-0,953125	0,328125
	0,140625	-0,953125	0,359375
	0,078125	-0,984375	0,328125
	0,109375	-1,000000	0,343750
	0,109375	-0,968750	0,312500
	0,125000	-0,968750	0,312500
	0,125000	-0,968750	0,359375
	0,109375	-0,984375	0,359375
	0,125000	-0,968750	0,328125
	0,109375	-0,984375	0,343750
	0,109375	-0,953125	0,343750
	0,140625	-0,984375	0,328125
	0,109375	-0,968750	0,328125
	0,093750	-0,968750	0,343750
	0,109375	-0,984375	0,343750
	0,125000	-0,968750	0,328125
	0,109375	-0,968750	0,343750
	0,078125	-0,968750	0,343750
	0,093750	-0,968750	0,359375
	0,109375	-0,984375	0,359375
	0,109375	-0,984375	0,359375
	0,140625	-0,937500	0,359375
	0,093750	-0,953125	0,343750
	0,140625	-0,953125	0,359375
	0,125000	-0,968750	0,359375
	0,093750	-0,968750	0,343750
	0,109375	-0,984375	0,343750
	0,125000	-0,984375	0,359375
	0,140625	-0,968750	0,343750
	0,109375	-1,000000	0,343750
	0,109375	-0,984375	0,343750
	0,140625	-0,953125	0,406250
	0,109375	-0,953125	0,343750
	0,109375	-0,953125	0,359375
	0,093750	-0,984375	0,312500
	0,109375	-0,968750	0,343750
	0,125000	-0,984375	0,359375
	0,109375	-0,953125	0,343750
	0,125000	-0,984375	0,343750
	0,093750	-0,968750	0,343750
	0,125000	-0,984375	0,328125
	0,109375	-0,984375	0,343750
	0,093750	-0,968750	0,328125
	0,093750	-0,968750	0,375000
	0,093750	-0,968750	0,359375
	0,109375	-0,968750	0,328125
	0,140625	-0,968750	0,359375
	0,109375	-0,968750	0,328125
	0,109375	-0,984375	0,343750
	0,109375	-0,968750	0,328125
	0,109375	-0,937500	0,312500
	0,140625	-0,937500	0,375000
	0,109375	-0,953125	0,343750
	0,109375	-0,968750	0,359375
	0,125000	-0,937500	0,343750
	0,078125	-0,984375	0,390625
	0,109375	-0,968750	0,343750
	0,078125	-0,968750	0,328125
	0,062500	-0,953125	0,343750
	0,093750	-0,953125	0,343750
	0,093750	-0,953125	0,359375
	0,109375	-0,953125	0,359375
	0,093750	-0,984375	0,359375
	0,125000	-0,968750	0,359375
	0,062500	-0,984375	0,343750
	0,093750	-0,984375	0,343750
	0,109375	-0,984375	0,343750
	0,093750	-0,984375	0,328125
	0,093750	-0,953125	0,343750
	0,093750	-0,968750	0,359375
	0,109375	-0,968750	0,343750
	0,125000	-0,953125	0,375000
	0,078125	-0,968750	0,359375
	0,093750	-0,953125	0,343750
	0,109375	-0,953125	0,343750
	0,093750	-0,968750	0,343750
	0,093750	-0,968750	0,359375
	0,093750	-0,984375	0,328125
	0,093750	-0,984375	0,359375
	0,109375	-0,984375	0,328125
	0,093750	-0,968750	0,343750
	0,171875	-0,968750	0,390625
	0,109375	-0,968750	0,328125
	0,093750	-0,968750	0,359375
	0,125000	-0,968750	0,375000
	0,093750	-0,984375	0,328125
	0,109375	-0,968750	0,343750
	0,093750	-0,953125	0,343750
	0,093750	-0,984375	0,328125
	0,109375	-0,984375	0,312500
	0,109375	-0,953125	0,343750
	0,109375	-0,968750	0,343750
	0,093750	-0,968750	0,312500
	0,125000	-0,953125	0,328125
	0,078125	-0,984375	0,328125
	0,125000	-0,968750	0,343750
	0,156250	-0,968750	0,421875
	0,109375	-0,984375	0,328125
	0,078125	-1,000000	0,359375
	0,109375	-0,984375	0,359375
	0,093750	-0,953125	0,328125
	0,140625	-0,937500	0,359375
	0,109375	-0,984375	0,343750
	0,109375	-0,968750	0,359375
	0,109375	-0,953125	0,343750
	0,125000	-0,968750	0,359375
	0,093750	-0,984375	0,328125
	0,109375	-0,968750	0,328125
	0,109375	-0,984375	0,328125
	0,109375	-0,968750	0,359375
	0,140625	-0,984375	0,343750
	0,125000	-0,953125	0,343750
	0,140625	-0,953125	0,328125
	0,125000	-0,968750	0,343750
	0,093750	-1,000000	0,343750
	0,093750	-0,968750	0,328125
	0,078125	-0,968750	0,359375
	0,109375	-0,968750	0,312500
	0,109375	-0,953125	0,343750
	0,109375	-1,015625	0,328125
	0,125000	-0,968750	0,343750
	0,140625	-0,953125	0,375000
	0,109375	-0,968750	0,296875
	0,078125	-1,000000	0,375000
	0,109375	-0,984375	0,328125
	0,093750	-0,984375	0,343750
	0,109375	-0,953125	0,312500
	0,125000	-0,984375	0,328125
	0,125000	-0,953125	0,328125
	0,109375	-0,968750	0,343750
	0,109375	-0,984375	0,343750
	0,140625	-0,937500	0,375000
	0,109375	-1,000000	0,343750
	0,109375	-0,984375	0,328125
	0,078125	-0,984375	0,312500
	0,109375	-0,968750	0,343750
	0,109375	-0,984375	0,328125
	0,109375	-0,968750	0,343750
	0,093750	-0,984375	0,359375
	0,109375	-0,968750	0,359375
	0,078125	-0,968750	0,328125
	0,093750	-0,953125	0,359375
	0,109375	-0,984375	0,343750
	0,109375	-0,984375	0,343750
	0,093750	-1,000000	0,328125
	0,109375	-0,953125	0,328125
	0,125000	-0,968750	0,343750
	0,093750	-0,984375	0,328125
	0,093750	-0,984375	0,375000
	0,109375	-0,984375	0,343750
	0,109375	-0,968750	0,312500
	0,171875	-0,937500	0,359375
	0,109375	-0,984375	0,296875
	0,093750	-0,984375	0,343750
	0,109375	-1,000000	0,343750
	0,093750	-0,984375	0,359375
	0,109375	-0,968750	0,359375
	0,109375	-0,968750	0,343750
	0,093750	-0,968750	0,343750
	0,109375	-0,984375	0,343750
	0,109375	-0,968750	0,328125
	0,125000	-0,937500	0,343750
	0,156250	-0,953125	0,328125
	0,078125	-0,968750	0,312500
	0,093750	-1,015625	0,312500
	0,109375	-0,968750	0,328125
	0,109375	-0,984375	0,359375
	0,125000	-0,968750	0,328125
	0,109375	-0,968750	0,328125
	0,109375	-0,953125	0,328125
	0,109375	-0,968750	0,343750
	0,156250	-0,937500	0,359375
	0,109375	-0,984375	0,343750
	0,125000	-1,000000	0,328125
	0,109375	-0,968750	0,343750
	0,093750	-0,968750	0,375000
	0,093750	-0,968750	0,328125
	0,125000	-0,984375	0,328125
	0,109375	-0,984375	0,343750
	0,109375	-0,968750	0,328125
	0,109375	-0,968750	0,328125
	0,125000	-0,953125	0,390625
	0,171875	-0,937500	0,437500
	0,140625	-0,968750	0,359375
	0,093750	-1,000000	0,312500
	0,093750	-0,968750	0,343750
	0,109375	-0,953125	0,328125
	0,109375	-0,984375	0,328125
	0,093750	-0,984375	0,328125
	0,109375	-0,968750	0,312500
	0,109375	-0,984375	0,328125
	0,125000	-0,968750	0,343750
	0,109375	-1,000000	0,296875
	0,093750	-0,984375	0,312500
	0,109375	-1,000000	0,343750
	0,093750	-0,984375	0,328125
	0,156250	-0,968750	0,375000
	0,109375	-1,000000	0,328125
	0,109375	-1,000000	0,328125
	0,109375	-0,984375	0,328125
	0,125000	-0,968750	0,328125
	0,156250	-0,921875	0,328125
	0,093750	-0,953125	0,328125
	0,109375	-1,000000	0,343750
	0,062500	-1,015625	0,328125
	0,109375	-1,000000	0,343750
	0,093750	-1,000000	0,359375
	0,093750	-0,968750	0,343750
	0,109375	-0,984375	0,343750
	0,109375	-0,968750	0,312500
	0,109375	-1,000000	0,328125
	0,125000	-0,953125	0,359375
	0,109375	-0,937500	0,343750
	0,109375	-0,968750	0,328125
	0,125000	-0,984375	0,328125
	0,109375	-0,968750	0,312500
	0,109375	-0,984375	0,328125
	0,093750	-0,968750	0,343750
	0,109375	-0,984375	0,343750
	0,078125	-0,968750	0,328125
	0,093750	-0,968750	0,312500
	0,078125	-0,984375	0,359375
	0,093750	-0,984375	0,343750
	0,093750	-0,984375	0,312500
	0,125000	-0,984375	0,343750
	0,109375	-0,968750	0,343750
	0,093750	-0,968750	0,343750
	0,125000	-0,953125	0,312500
	0,109375	-0,968750	0,328125
	0,093750	-0,968750	0,359375
	0,093750	-0,968750	0,312500
	0,140625	-0,937500	0,328125
	0,078125	-1,015625	0,328125
	0,109375	-1,000000	0,328125
	0,125000	-0,953125	0,328125
	0,109375	-0,968750	0,328125
	0,093750	-0,968750	0,328125
	0,093750	-0,984375	0,328125
	0,093750	-0,984375	0,328125
	0,109375	-0,953125	0,312500
	0,109375	-0,984375	0,328125
	0,125000	-0,953125	0,359375
	0,140625	-1,000000	0,343750
	0,109375	-0,984375	0,328125
	0,140625	-0,968750	0,328125
	0,109375	-0,968750	0,296875
	0,109375	-1,000000	0,328125
	0,125000	-0,968750	0,328125
	0,093750	-1,000000	0,312500
	0,109375	-1,000000	0,343750
	0,093750	-0,968750	0,359375
	0,156250	-0,906250	0,343750
	0,109375	-0,984375	0,312500
	0,109375	-0,984375	0,343750
	0,093750	-0,968750	0,343750
	0,093750	-0,968750	0,312500
	0,109375	-0,953125	0,328125
	0,093750	-0,984375	0,343750
	0,109375	-0,984375	0,328125
	0,109375	-0,968750	0,343750
	0,125000	-0,984375	0,328125
	0,140625	-0,937500	0,328125
	0,109375	-0,984375	0,328125
	0,140625	-0,984375	0,328125
	0,109375	-0,968750	0,359375
	0,125000	-1,000000	0,343750
	0,093750	-0,984375	0,343750
	0,093750	-0,984375	0,343750
	0,109375	-0,968750	0,296875
	0,109375	-1,000000	0,328125
	0,109375	-0,968750	0,312500
	0,109375	-1,000000	0,359375
	0,093750	-0,953125	0,328125
	0,062500	-0,953125	0,281250
	0,125000	-0,984375	0,296875
	0,109375	-0,984375	0,343750
	0,093750	-0,968750	0,328125
	0,109375	-0,953125	0,312500
	0,109375	-0,968750	0,343750
	0,093750	-0,984375	0,343750
	0,078125	-0,953125	0,343750
	0,171875	-0,921875	0,312500
	0,109375	-1,000000	0,343750
	0,109375	-0,968750	0,328125
	0,109375	-0,968750	0,343750
	0,109375	-0,984375	0,312500
	0,109375	-0,984375	0,328125
	0,093750	-0,953125	0,296875
	0,109375	-0,968750	0,312500
	0,093750	-0,984375	0,312500
	0,109375	-0,953125	0,312500
	0,125000	-0,953125	0,375000
	0,125000	-0,937500	0,343750
	0,109375	-0,984375	0,328125
	0,109375	-0,968750	0,359375
	0,109375	-0,984375	0,296875
	0,109375	-0,968750	0,328125
	0,109375	-0,984375	0,328125
	0,109375	-0,953125	0,312500
	0,125000	-0,984375	0,343750
	0,125000	-0,968750	0,343750
	0,140625	-0,953125	0,359375
	0,109375	-1,000000	0,328125
	0,109375	-0,984375	0,343750
	0,109375	-0,953125	0,343750
	0,109375	-0,984375	0,328125
	0,078125	-0,953125	0,343750
	0,093750	-0,953125	0,312500
	0,125000	-0,984375	0,328125
	0,109375	-0,984375	0,328125
	0,109375	-0,968750	0,328125
	0,156250	-0,937500	0,375000
	0,125000	-0,984375	0,343750
	0,109375	-0,984375	0,359375
	0,109375	-0,968750	0,312500
	0,125000	-0,984375	0,343750
	0,125000	-0,968750	0,328125
	0,109375	-0,984375	0,343750
	0,125000	-0,984375	0,343750
	0,093750	-0,968750	0,328125
	0,093750	-0,984375	0,343750
	0,109375	-0,968750	0,328125
	0,109375	-0,984375	0,343750
	0,109375	-0,968750	0,343750
	0,125000	-0,968750	0,343750
	0,125000	-0,968750	0,328125
	0,109375	-0,953125	0,359375
	0,093750	-0,953125	0,312500
	0,109375	-0,984375	0,328125
	0,109375	-0,968750	0,343750
	0,109375	-0,937500	0,343750
	0,140625	-0,937500	0,343750
	0,093750	-0,968750	0,328125
	0,109375	-1,000000	0,343750
	0,093750	-0,968750	0,343750
	0,109375	-0,968750	0,328125
	0,125000	-0,953125	0,343750
	0,109375	-0,968750	0,359375
	0,093750	-0,968750	0,343750
	0,109375	-0,968750	0,312500
	0,093750	-0,953125	0,359375
	0,140625	-1,000000	0,406250
	0,109375	-0,984375	0,359375
	0,109375	-0,968750	0,328125
	0,093750	-0,968750	0,343750
	0,125000	-0,984375	0,312500
	0,109375	-0,937500	0,343750
	0,125000	-0,984375	0,328125
	0,109375	-0,968750	0,359375
	0,093750	-0,968750	0,343750
	0,109375	-0,953125	0,343750
	0,093750	-0,953125	0,375000
	0,109375	-0,968750	0,359375
	0,078125	-0,968750	0,328125
	0,109375	-1,000000	0,359375
	0,093750	-0,984375	0,359375
	0,109375	-0,984375	0,328125
	0,078125	-0,968750	0,343750
	0,093750	-0,937500	0,328125
	0,109375	-0,968750	0,328125
	0,109375	-0,968750	0,343750
	0,140625	-0,937500	0,390625
	0,093750	-0,968750	0,328125
	0,109375	-0,984375	0,328125
	0,140625	-0,953125	0,359375
	0,109375	-1,000000	0,359375
	0,125000	-0,968750	0,343750
	0,109375	-1,000000	0,343750
	0,093750	-0,984375	0,375000
	0,109375	-0,968750	0,343750
	0,109375	-1,000000	0,343750
	0,093750	-0,968750	0,328125
	0,093750	-0,984375	0,312500
	0,125000	-0,984375	0,343750
	0,109375	-0,953125	0,375000
	0,109375	-1,000000	0,343750
	0,078125	-0,953125	0,328125
	0,093750	-0,953125	0,328125
	0,109375	-0,968750	0,328125
	0,093750	-0,984375	0,328125
	0,109375	-0,968750	0,343750
	0,140625	-0,953125	0,375000
	0,093750	-0,968750	0,328125
	0,125000	-0,984375	0,343750
	0,093750	-0,968750	0,328125
	0,093750	-0,984375	0,328125
	0,093750	-0,968750	0,328125
	0,125000	-0,968750	0,312500
	0,109375	-0,968750	0,359375
	0,109375	-1,000000	0,343750
	0,125000	-0,968750	0,343750
	0,109375	-0,968750	0,375000
	0,125000	-0,968750	0,343750
	0,078125	-1,000000	0,328125
	0,093750	-0,984375	0,343750
	0,125000	-0,968750	0,328125
	0,125000	-0,968750	0,359375
	0,093750	-0,984375	0,343750
	0,109375	-0,968750	0,343750
	0,109375	-0,953125	0,312500
	0,078125	-0,953125	0,328125
	0,125000	-0,937500	0,359375
	0,109375	-0,953125	0,343750
	0,125000	-0,968750	0,328125
	0,109375	-0,968750	0,343750
	0,109375	-0,968750	0,359375
	0,109375	-0,953125	0,328125
	0,125000	-1,000000	0,328125
	0,125000	-0,968750	0,343750
	0,109375	-0,984375	0,359375
	0,125000	-0,968750	0,343750
	0,156250	-0,984375	0,375000
	0,125000	-1,000000	0,343750
	0,109375	-0,984375	0,359375
	0,109375	-1,000000	0,343750
	0,125000	-0,968750	0,296875
	0,109375	-0,984375	0,328125
	0,125000	-0,953125	0,328125
	0,109375	-0,953125	0,328125
	0,093750	-0,953125	0,343750
	0,109375	-0,984375	0,328125
	0,093750	-0,968750	0,359375
	0,093750	-0,968750	0,343750
	0,109375	-0,984375	0,328125
	0,109375	-0,953125	0,343750
	0,093750	-0,953125	0,359375
	0,093750	-0,984375	0,343750
	0,093750	-0,968750	0,343750
	0,125000	-0,984375	0,343750
	0,109375	-0,984375	0,328125
	0,093750	-0,968750	0,328125
	0,156250	-0,937500	0,359375
	0,125000	-0,984375	0,343750
	0,093750	-0,968750	0,343750
	0,109375	-0,968750	0,343750
	0,109375	-0,968750	0,343750
	0,109375	-0,984375	0,343750
	0,109375	-0,953125	0,343750
	0,125000	-0,953125	0,312500
	0,093750	-0,984375	0,343750
	0,078125	-0,984375	0,359375
	0,140625	-0,953125	0,343750
	0,109375	-0,968750	0,328125
	0,093750	-0,968750	0,312500
	0,109375	-0,984375	0,343750
	0,093750	-0,968750	0,328125
	0,109375	-0,968750	0,343750
	0,093750	-0,953125	0,328125
	0,093750	-0,968750	0,328125
	0,093750	-0,968750	0,343750
	0,125000	-1,000000	0,328125
	0,093750	-0,953125	0,328125
	0,125000	-0,984375	0,328125
	0,156250	-0,984375	0,328125
	0,125000	-1,015625	0,328125
	0,093750	-0,968750	0,343750
	0,109375	-0,968750	0,359375
	0,125000	-0,968750	0,343750
	0,093750	-0,968750	0,359375
	0,109375	-0,984375	0,343750
	0,109375	-0,953125	0,328125
	0,078125	-0,875000	0,343750
	0,109375	-1,000000	0,343750
	0,109375	-0,984375	0,359375
	0,109375	-0,984375	0,343750
	0,109375	-0,968750	0,359375
	0,109375	-0,984375	0,359375
	0,078125	-0,937500	0,343750
	0,109375	-1,015625	0,343750
	0,093750	-0,968750	0,343750
	0,093750	-0,953125	0,343750
	0,109375	-0,953125	0,359375
	0,109375	-0,984375	0,375000
	0,093750	-0,984375	0,312500
	0,125000	-0,968750	0,312500
	0,093750	-0,984375	0,312500
	0,093750	-0,968750	0,328125
	0,109375	-0,968750	0,328125
	0,109375	-0,968750	0,343750
	0,109375	-0,984375	0,328125
	0,109375	-1,015625	0,343750
	0,125000	-0,968750	0,375000
	0,109375	-0,953125	0,312500
	0,093750	-0,968750	0,343750
	0,125000	-0,968750	0,312500
	0,093750	-0,968750	0,328125
	0,078125	-0,984375	0,328125
	0,093750	-0,984375	0,328125
	0,109375	-0,984375	0,328125
	0,093750	-0,968750	0,343750
	0,125000	-1,000000	0,328125
	0,109375	-0,937500	0,375000
	0,093750	-0,968750	0,312500
	0,109375	-0,984375	0,343750
	0,093750	-0,968750	0,328125
	0,125000	-0,953125	0,343750
	0,109375	-0,953125	0,390625
	0,140625	-0,937500	0,390625
	0,093750	-0,968750	0,343750
	0,093750	-0,984375	0,359375
	0,093750	-0,968750	0,343750
	0,093750	-0,984375	0,343750
	0,093750	-0,984375	0,328125
	0,093750	-1,000000	0,343750
	0,109375	-0,937500	0,359375
	0,093750	-0,984375	0,328125
	0,093750	-0,968750	0,343750
	0,109375	-0,968750	0,328125
	0,109375	-0,968750	0,343750
	0,093750	-0,984375	0,312500
	0,109375	-0,984375	0,343750
	0,156250	-0,953125	0,359375
	0,109375	-0,968750	0,343750
	0,109375	-0,984375	0,343750
	0,109375	-0,953125	0,328125
	0,109375	-0,953125	0,328125
	0,109375	-0,984375	0,375000
	0,093750	-0,968750	0,328125
	0,109375	-0,953125	0,343750
	0,093750	-0,984375	0,343750
	0,109375	-0,984375	0,375000
	0,156250	-0,953125	0,359375
	0,125000	-0,968750	0,359375
	0,093750	-1,000000	0,343750
	0,078125	-0,984375	0,312500
	0,093750	-0,968750	0,312500
	0,093750	-0,984375	0,343750
	0,125000	-0,984375	0,296875
	0,125000	-0,984375	0,328125
	0,125000	-0,984375	0,343750
	0,125000	-0,968750	0,328125
	0,125000	-0,968750	0,328125
	0,093750	-0,953125	0,328125
	0,125000	-0,984375	0,328125
	0,109375	-0,968750	0,343750
	0,093750	-1,000000	0,312500
	0,109375	-0,984375	0,328125
	0,109375	-0,968750	0,343750
	0,109375	-0,984375	0,328125
	0,109375	-0,968750	0,312500
	0,093750	-1,000000	0,328125
	0,109375	-0,953125	0,390625
	0,125000	-1,000000	0,312500
	0,109375	-1,015625	0,343750
	0,109375	-0,968750	0,312500
	0,093750	-1,000000	0,343750
	0,125000	-1,000000	0,343750
	0,109375	-0,984375	0,328125
	0,125000	-0,968750	0,343750
	0,125000	-0,984375	0,343750
	0,109375	-0,937500	0,343750
	0,109375	-0,953125	0,343750
	0,093750	-0,984375	0,328125
	0,078125	-0,984375	0,312500
	0,093750	-1,046875	0,296875
	0,109375	-1,015625	0,343750
	0,125000	-0,968750	0,328125
	0,093750	-0,968750	0,328125
	0,093750	-0,984375	0,343750
	0,109375	-0,968750	0,343750
	0,109375	-0,968750	0,328125
	0,125000	-0,937500	0,359375
	0,109375	-1,000000	0,343750
	0,109375	-0,968750	0,328125
	0,109375	-1,000000	0,328125
	0,140625	-0,984375	0,312500
	0,109375	-0,968750	0,328125
	0,093750	-0,984375	0,312500
	0,093750	-0,968750	0,328125
	0,093750	-0,984375	0,312500
	0,109375	-0,984375	0,328125
	0,140625	-0,953125	0,375000
	0,109375	-0,953125	0,312500
	0,109375	-0,968750	0,343750
	0,078125	-0,968750	0,281250
	0,078125	-0,984375	0,343750
	0,140625	-0,968750	0,359375
	0,109375	-0,984375	0,328125
	0,109375	-0,984375	0,343750
	0,109375	-0,953125	0,328125
	0,125000	-0,984375	0,343750
	0,125000	-0,984375	0,328125
	0,109375	-1,000000	0,328125
	0,125000	-0,984375	0,312500
	0,093750	-1,031250	0,312500
	0,109375	-1,000000	0,312500
	0,109375	-0,968750	0,312500
	0,109375	-0,984375	0,312500
	0,109375	-0,953125	0,328125
	0,109375	-0,984375	0,343750
	0,109375	-0,968750	0,328125
	0,125000	-0,937500	0,328125
	0,109375	-0,984375	0,328125
	0,093750	-0,968750	0,312500
	0,093750	-0,968750	0,312500
	0,125000	-0,984375	0,328125
	0,125000	-0,937500	0,359375
	0,125000	-0,968750	0,328125
	0,109375	-1,000000	0,359375
	0,109375	-0,984375	0,343750
	0,125000	-0,984375	0,328125
	0,140625	-0,953125	0,312500
	0,109375	-0,953125	0,343750
	0,093750	-0,984375	0,328125
	0,109375	-0,984375	0,296875
	0,109375	-0,953125	0,328125
	0,093750	-0,984375	0,312500
	0,125000	-0,984375	0,328125
	0,125000	-0,984375	0,328125
	0,093750	-0,984375	0,312500
	0,093750	-1,000000	0,328125
	0,140625	-0,953125	0,359375
	0,093750	-0,984375	0,312500
	0,093750	-0,968750	0,343750
	0,093750	-1,000000	0,328125
	0,109375	-0,968750	0,328125
	0,109375	-0,953125	0,343750
	0,093750	-0,984375	0,312500
	0,109375	-0,968750	0,328125
	0,093750	-0,968750	0,343750
	0,125000	-0,984375	0,359375
	0,156250	-0,984375	0,406250
	0,109375	-0,984375	0,343750
	0,125000	-1,000000	0,328125
	0,125000	-1,015625	0,328125
	0,125000	-0,984375	0,359375
	0,109375	-0,984375	0,343750
	0,093750	-0,984375	0,281250
	0,109375	-1,000000	0,296875
	0,125000	-0,984375	0,296875
	0,078125	-0,984375	0,312500
	0,093750	-1,000000	0,343750
	0,078125	-0,953125	0,328125
	0,093750	-0,984375	0,312500
	0,109375	-0,984375	0,312500
	0,109375	-1,000000	0,359375
	0,093750	-0,953125	0,343750
	0,109375	-0,953125	0,343750
	0,109375	-0,953125	0,328125
	0,093750	-0,937500	0,343750
	0,109375	-0,968750	0,359375
	0,125000	-0,937500	0,375000
	0,093750	-0,953125	0,343750
	0,109375	-0,968750	0,328125
	0,093750	-0,968750	0,312500
	0,125000	-0,984375	0,328125
	0,125000	-0,968750	0,343750
	0,109375	-0,968750	0,328125
	0,093750	-0,984375	0,328125
	0,109375	-0,984375	0,312500
	0,109375	-0,984375	0,312500
	0,125000	-0,953125	0,343750
	0,109375	-0,968750	0,328125
	0,125000	-0,984375	0,312500
	0,093750	-0,968750	0,312500
	0,109375	-0,953125	0,343750
	0,125000	-0,968750	0,328125
	0,109375	-1,000000	0,343750
	0,109375	-0,953125	0,328125
	0,125000	-0,984375	0,328125
	0,125000	-0,984375	0,328125
	0,156250	-0,953125	0,375000
	0,109375	-0,953125	0,343750
	0,109375	-0,984375	0,328125
	0,125000	-1,000000	0,375000
	0,093750	-0,984375	0,343750
	0,093750	-0,968750	0,312500
	0,125000	-0,953125	0,328125
	0,093750	-0,968750	0,312500
	0,109375	-0,984375	0,328125
	0,109375	-0,984375	0,328125
	0,140625	-0,953125	0,406250
	0,125000	-1,000000	0,328125
	0,125000	-0,968750	0,343750
	0,109375	-0,968750	0,328125
	0,140625	-0,984375	0,328125
	0,125000	-0,968750	0,296875
	0,093750	-0,984375	0,343750
	0,093750	-0,953125	0,312500
	0,125000	-0,968750	0,328125
	0,140625	-0,968750	0,343750
	0,109375	-0,984375	0,312500
	0,125000	-0,984375	0,343750
	0,125000	-0,953125	0,359375
	0,125000	-0,968750	0,328125
	0,093750	-1,000000	0,343750
	0,140625	-0,984375	0,328125
	0,109375	-1,000000	0,343750
	0,109375	-1,000000	0,328125
	0,109375	-0,953125	0,328125
	0,109375	-0,968750	0,343750
	0,156250	-0,953125	0,328125
	0,109375	-0,968750	0,328125
	0,093750	-0,968750	0,343750
	0,093750	-0,984375	0,359375
	0,109375	-0,968750	0,312500
	0,171875	-0,968750	0,375000
	0,125000	-0,953125	0,343750
	0,093750	-0,968750	0,359375
	0,093750	-0,984375	0,328125
	0,109375	-0,984375	0,343750
	0,125000	-0,937500	0,375000
	0,125000	-0,953125	0,343750
	0,093750	-0,984375	0,375000
	0,140625	-0,937500	0,343750
	0,093750	-1,000000	0,343750
	0,093750	-0,968750	0,328125
	0,125000	-0,984375	0,359375
	0,125000	-0,968750	0,343750
	0,093750	-0,968750	0,343750
	0,093750	-0,968750	0,343750
	0,125000	-0,937500	0,390625
	0,093750	-0,953125	0,343750
	0,109375	-0,968750	0,343750
	0,093750	-0,984375	0,343750
	0,109375	-0,953125	0,359375
	0,109375	-0,953125	0,343750
	0,125000	-0,984375	0,296875
	0,109375	-0,968750	0,343750
	0,093750	-0,937500	0,328125
	0,093750	-0,984375	0,343750
	0,156250	-0,937500	0,390625
	0,093750	-0,968750	0,328125
	0,109375	-0,968750	0,312500
	0,109375	-0,968750	0,359375
	0,109375	-0,953125	0,359375
	0,093750	-0,984375	0,343750
	0,109375	-0,953125	0,328125
	0,109375	-0,968750	0,343750
	0,093750	-0,984375	0,343750
	0,125000	-1,000000	0,343750
	0,125000	-0,953125	0,359375
	0,125000	-0,984375	0,328125
	0,109375	-0,984375	0,328125
	0,046875	-1,015625	0,281250
	0,109375	-0,968750	0,328125
	0,093750	-0,984375	0,328125
	0,093750	-0,953125	0,343750
	0,109375	-0,984375	0,343750
	0,109375	-0,953125	0,359375
	0,109375	-0,968750	0,343750
	0,125000	-0,937500	0,359375
	0,109375	-0,953125	0,328125
	0,125000	-0,953125	0,328125
	0,125000	-0,953125	0,328125
	0,093750	-0,953125	0,328125
	0,078125	-0,968750	0,375000
	0,125000	-0,953125	0,359375
	0,125000	-0,968750	0,343750
	0,093750	-0,968750	0,328125
	0,109375	-0,968750	0,359375
	0,140625	-0,953125	0,359375
	0,109375	-0,968750	0,328125
	0,093750	-0,984375	0,328125
	0,078125	-0,953125	0,328125
	0,093750	-0,968750	0,328125
	0,109375	-0,968750	0,359375
	0,109375	-0,968750	0,328125
	0,109375	-0,953125	0,343750
	0,109375	-0,968750	0,359375
	0,109375	-0,968750	0,328125
	0,109375	-0,984375	0,312500
	0,109375	-1,000000	0,343750
	0,109375	-0,984375	0,375000
	0,078125	-1,000000	0,296875
	0,078125	-0,968750	0,328125
	0,078125	-0,937500	0,328125
	0,093750	-0,968750	0,343750
	0,078125	-0,968750	0,359375
	0,109375	-0,968750	0,343750
	0,093750	-0,968750	0,328125
	0,156250	-0,937500	0,406250
	0,109375	-0,984375	0,343750
	0,109375	-0,968750	0,312500
	0,093750	-1,000000	0,328125
	0,109375	-0,984375	0,359375
	0,125000	-0,984375	0,343750
	0,109375	-0,984375	0,359375
	0,109375	-0,968750	0,343750
	0,109375	-0,984375	0,359375
	0,093750	-0,953125	0,359375
	0,140625	-0,953125	0,375000
	0,140625	-0,968750	0,328125
	0,125000	-0,968750	0,343750
	0,078125	-0,968750	0,359375
	0,109375	-0,968750	0,343750
	0,125000	-0,968750	0,343750
	0,093750	-0,968750	0,343750
	0,109375	-0,968750	0,343750
	0,140625	-0,984375	0,328125
	0,125000	-0,968750	0,328125
	0,156250	-0,937500	0,359375
	0,125000	-0,984375	0,343750
	0,125000	-0,984375	0,328125
	0,125000	-0,984375	0,328125
	0,109375	-0,968750	0,328125
	0,156250	-0,921875	0,343750
	0,109375	-0,937500	0,343750
	0,140625	-0,968750	0,312500
	0,093750	-0,984375	0,359375
	0,093750	-0,984375	0,343750
	0,140625	-0,953125	0,390625
	0,109375	-0,984375	0,343750
	0,109375	-0,968750	0,375000
	0,093750	-0,984375	0,359375
	0,093750	-0,968750	0,312500
	0,093750	-0,984375	0,328125
	0,093750	-0,953125	0,343750
	0,093750	-0,984375	0,343750
	0,093750	-0,968750	0,343750
	0,109375	-1,015625	0,343750
	0,109375	-0,984375	0,343750
	0,109375	-0,968750	0,343750
	0,109375	-0,937500	0,328125
	0,125000	-1,000000	0,343750
	0,125000	-0,984375	0,343750
	0,109375	-0,984375	0,343750
	0,093750	-1,015625	0,343750
	0,093750	-0,984375	0,343750
	0,125000	-1,000000	0,328125
	0,125000	-1,000000	0,296875
	0,140625	-0,906250	0,390625
	0,125000	-0,953125	0,328125
	0,125000	-0,968750	0,343750
	0,109375	-0,984375	0,328125
	0,125000	-1,000000	0,343750
	0,109375	-0,984375	0,343750
	0,093750	-0,984375	0,359375
	0,109375	-0,984375	0,328125
	0,078125	-0,968750	0,359375
	0,093750	-0,953125	0,343750
	0,125000	-0,953125	0,390625
	0,109375	-0,953125	0,390625
	0,078125	-0,984375	0,359375
	0,093750	-0,953125	0,359375
	0,125000	-0,968750	0,390625
	0,078125	-0,953125	0,328125
	0,093750	-0,984375	0,343750
	0,109375	-0,984375	0,328125
	0,078125	-0,968750	0,343750
	0,109375	-0,984375	0,343750
	0,109375	-0,937500	0,343750
	0,109375	-0,984375	0,328125
	0,125000	-0,968750	0,328125
	0,093750	-0,953125	0,312500
	0,109375	-0,953125	0,328125
	0,109375	-0,984375	0,359375
	0,125000	-0,984375	0,328125
	0,125000	-0,968750	0,359375
	0,109375	-0,984375	0,312500
	0,125000	-0,968750	0,328125
	0,156250	-0,953125	0,343750
	0,140625	-0,953125	0,312500
	0,125000	-0,968750	0,343750
	0,125000	-0,968750	0,343750
	0,125000	-0,953125	0,328125
	0,109375	-0,968750	0,328125
	0,125000	-0,968750	0,343750
	0,109375	-0,968750	0,359375
	0,109375	-0,968750	0,328125
	0,109375	-0,968750	0,328125
	0,125000	-0,953125	0,328125
	0,140625	-0,984375	0,328125
	0,140625	-0,968750	0,328125
	0,125000	-0,984375	0,312500
	0,078125	-1,000000	0,312500
	0,078125	-0,984375	0,343750
	0,109375	-0,984375	0,328125
	0,125000	-0,984375	0,343750
	0,125000	-0,953125	0,328125
	0,140625	-1,000000	0,312500
	0,125000	-0,921875	0,328125
	0,093750	-0,984375	0,343750
	0,156250	-0,953125	0,343750
	0,109375	-1,000000	0,343750
	0,109375	-0,968750	0,328125
	0,109375	-0,968750	0,328125
	0,125000	-0,968750	0,359375
	0,109375	-0,984375	0,328125
	0,109375	-0,968750	0,343750
	0,109375	-0,968750	0,359375
	0,125000	-0,953125	0,343750
	0,125000	-0,984375	0,343750
	0,125000	-0,984375	0,343750
	0,109375	-0,984375	0,343750
	0,093750	-0,968750	0,343750
	0,093750	-0,968750	0,343750
	0,109375	-0,968750	0,328125
	0,125000	-0,984375	0,328125
	0,125000	-0,953125	0,343750
	0,125000	-0,953125	0,312500
	0,125000	-0,984375	0,343750
	0,125000	-0,984375	0,343750
	0,093750	-0,968750	0,328125
	0,125000	-1,015625	0,312500
	0,062500	-1,000000	0,359375
	0,171875	-0,921875	0,359375
	0,125000	-0,968750	0,328125
	0,125000	-1,000000	0,343750
	0,078125	-0,953125	0,328125
	0,125000	-0,968750	0,328125
	0,156250	-0,937500	0,328125
	0,125000	-0,984375	0,328125
	0,125000	-0,968750	0,328125
	0,093750	-0,984375	0,312500
	0,093750	-0,953125	0,328125
	0,125000	-0,968750	0,328125
	0,093750	-0,968750	0,343750
	0,109375	-0,984375	0,343750
	0,109375	-0,968750	0,312500
	0,109375	-0,984375	0,328125
	0,125000	-0,984375	0,343750
	0,093750	-0,953125	0,359375
	0,109375	-0,968750	0,343750
	0,125000	-0,968750	0,312500
	0,093750	-1,000000	0,359375
	0,109375	-0,968750	0,328125
	0,109375	-0,984375	0,359375
	0,109375	-0,984375	0,359375
	0,140625	-0,953125	0,359375
	0,125000	-0,968750	0,328125
	0,125000	-0,937500	0,375000
	0,125000	-0,968750	0,328125
	0,140625	-0,968750	0,312500
	0,093750	-0,968750	0,343750
	0,093750	-0,984375	0,343750
	0,093750	-1,000000	0,328125
	0,109375	-0,984375	0,328125
	0,125000	-0,968750	0,328125
	0,109375	-0,984375	0,343750
	0,109375	-0,968750	0,328125
	0,140625	-0,921875	0,343750
	0,093750	-0,968750	0,328125
	0,109375	-0,953125	0,343750
	0,109375	-0,968750	0,312500
	0,109375	-0,968750	0,328125
	0,093750	-0,968750	0,343750
	0,125000	-0,968750	0,312500
	0,125000	-0,968750	0,343750
	0,109375	-0,953125	0,328125
	0,093750	-0,968750	0,312500
	0,093750	-0,953125	0,359375
	0,140625	-0,984375	0,312500
	0,093750	-0,968750	0,328125
	0,062500	-0,984375	0,343750
	0,078125	-0,968750	0,359375
	0,109375	-0,984375	0,343750
	0,093750	-0,968750	0,328125
	0,125000	-0,968750	0,343750
	0,125000	-0,968750	0,296875
	0,109375	-0,984375	0,312500
	0,140625	-0,953125	0,375000
	0,109375	-0,984375	0,328125
	0,093750	-1,000000	0,328125
	0,109375	-0,968750	0,312500
	0,125000	-0,968750	0,328125
	0,093750	-0,953125	0,343750
	0,093750	-0,953125	0,328125
	0,109375	-1,000000	0,359375
	0,125000	-0,968750	0,328125
	0,125000	-1,015625	0,343750
	0,140625	-0,937500	0,343750
	0,125000	-0,984375	0,312500
	0,109375	-1,000000	0,312500
	0,109375	-1,000000	0,343750
	0,109375	-0,968750	0,343750
	0,125000	-0,984375	0,328125
	0,093750	-0,968750	0,328125
	0,093750	-0,984375	0,328125
	0,140625	-0,968750	0,343750
	0,109375	-1,000000	0,375000
	0,140625	-0,937500	0,359375
	0,109375	-0,984375	0,312500
	0,156250	-1,000000	0,328125
	0,093750	-0,984375	0,312500
	0,125000	-0,968750	0,328125
	0,093750	-0,968750	0,343750
	0,109375	-0,984375	0,328125
	0,093750	-0,953125	0,328125
	0,140625	-0,984375	0,312500
	0,125000	-0,984375	0,328125
	0,171875	-0,937500	0,359375
	0,109375	-0,953125	0,296875
	0,125000	-0,968750	0,312500
	0,125000	-0,984375	0,343750
	0,109375	-0,937500	0,359375
	0,109375	-0,984375	0,343750
	0,093750	-0,984375	0,343750
	0,125000	-1,000000	0,343750
	0,140625	-0,984375	0,343750
	0,109375	-0,968750	0,359375
	0,109375	-0,968750	0,343750
	0,125000	-0,984375	0,312500
	0,125000	-0,968750	0,328125
	0,109375	-0,953125	0,328125
	0,109375	-0,984375	0,328125
	0,171875	-0,890625	0,359375
	0,109375	-0,968750	0,359375
	0,125000	-0,968750	0,343750
	0,125000	-0,968750	0,343750
	0,109375	-0,984375	0,343750
	0,140625	-0,937500	0,375000
	0,109375	-0,984375	0,328125
	0,125000	-0,968750	0,343750
	0,125000	-0,937500	0,375000
	0,125000	-0,984375	0,328125
	0,078125	-0,984375	0,312500
	0,109375	-0,984375	0,328125
	0,109375	-0,968750	0,312500
	0,093750	-0,968750	0,343750
	0,109375	-0,953125	0,328125
	0,125000	-0,937500	0,343750
	0,125000	-0,953125	0,343750
	0,109375	-0,968750	0,328125
	0,109375	-0,984375	0,343750
	0,109375	-1,000000	0,343750
	0,109375	-0,968750	0,328125
	0,109375	-1,000000	0,343750
	0,109375	-0,984375	0,343750
	0,093750	-0,984375	0,343750
	0,125000	-0,968750	0,328125
	0,093750	-0,984375	0,343750
	0,125000	-0,968750	0,343750
	0,156250	-0,984375	0,328125
	0,093750	-1,015625	0,328125
	0,109375	-1,000000	0,328125
	0,109375	-1,000000	0,343750
	0,093750	-0,968750	0,328125
	0,109375	-0,968750	0,312500
	0,125000	-0,968750	0,328125
	0,109375	-0,968750	0,343750
	0,156250	-0,953125	0,375000
	0,109375	-0,984375	0,343750
	0,140625	-0,984375	0,343750
	0,125000	-1,000000	0,343750
	0,093750	-0,984375	0,312500
	0,093750	-1,000000	0,343750
	0,125000	-0,984375	0,343750
	0,078125	-1,000000	0,312500
	0,093750	-0,937500	0,328125
	0,125000	-0,953125	0,328125
	0,125000	-0,953125	0,359375
	0,125000	-0,937500	0,359375
	0,093750	-0,984375	0,312500
	0,093750	-1,000000	0,359375
	0,125000	-0,984375	0,328125
	0,125000	-0,968750	0,343750
	0,093750	-0,953125	0,343750
	0,109375	-1,000000	0,328125
	0,125000	-0,984375	0,343750
	0,140625	-0,984375	0,328125
	0,156250	-0,953125	0,343750
	0,093750	-0,953125	0,343750
	0,125000	-0,984375	0,312500
	0,093750	-0,968750	0,343750
	0,125000	-0,953125	0,328125
	0,109375	-0,984375	0,343750
	0,125000	-0,953125	0,343750
	0,109375	-0,968750	0,343750
	0,109375	-0,984375	0,359375
	0,125000	-0,968750	0,359375
	0,125000	-0,953125	0,359375
	0,125000	-0,953125	0,328125
	0,109375	-0,984375	0,328125
	0,140625	-0,968750	0,343750
	0,109375	-0,953125	0,343750
	0,109375	-0,968750	0,328125
	0,109375	-1,000000	0,328125
	0,109375	-0,984375	0,328125
	0,125000	-0,984375	0,328125
	0,140625	-0,968750	0,343750
	0,093750	-0,968750	0,359375
	0,093750	-0,984375	0,312500
	0,109375	-1,000000	0,328125
	0,125000	-0,968750	0,312500
	0,109375	-0,968750	0,343750
	0,109375	-0,953125	0,359375
	0,125000	-0,984375	0,343750
	0,125000	-0,968750	0,343750
	0,109375	-0,984375	0,328125
	0,109375	-0,968750	0,343750
	0,156250	-0,921875	0,375000
	0,125000	-0,953125	0,328125
	0,125000	-0,984375	0,328125
	0,109375	-1,015625	0,343750
	0,109375	-1,015625	0,328125
	0,109375	-1,000000	0,343750
	0,109375	-0,953125	0,328125
	0,109375	-0,968750	0,359375
	0,125000	-0,968750	0,343750
	0,093750	-0,953125	0,343750
	0,109375	-0,953125	0,359375
	0,109375	-0,968750	0,343750
	0,140625	-1,000000	0,328125
	0,125000	-0,984375	0,312500
	0,093750	-0,968750	0,343750
	0,109375	-0,953125	0,343750
	0,125000	-0,968750	0,328125
	0,093750	-0,968750	0,343750
	0,109375	-0,984375	0,359375
	0,109375	-0,984375	0,343750
	0,125000	-0,953125	0,343750
	0,093750	-0,937500	0,343750
	0,140625	-0,937500	0,328125
	0,093750	-0,968750	0,296875
	0,109375	-0,968750	0,343750
	0,109375	-0,953125	0,343750
	0,093750	-0,937500	0,375000
	0,109375	-0,968750	0,359375
	0,109375	-0,953125	0,343750
	0,125000	-0,953125	0,343750
	0,171875	-0,937500	0,375000
	0,109375	-0,984375	0,343750
	0,109375	-0,953125	0,359375
	0,093750	-1,015625	0,296875
	0,093750	-0,984375	0,328125
	0,093750	-0,968750	0,343750
	0,093750	-0,984375	0,359375
	0,109375	-0,984375	0,343750
	0,125000	-0,984375	0,343750
	0,093750	-0,984375	0,343750
	0,125000	-0,984375	0,375000
	0,109375	-0,968750	0,343750
	0,093750	-0,968750	0,343750
	0,093750	-0,968750	0,359375
	0,109375	-0,984375	0,312500
	0,093750	-0,953125	0,359375
	0,093750	-0,984375	0,343750
	0,093750	-0,968750	0,328125
	0,125000	-0,968750	0,312500
	0,109375	-0,984375	0,343750
	0,156250	-0,953125	0,359375
	0,093750	-0,984375	0,328125
	0,093750	-0,968750	0,359375
	0,093750	-0,968750	0,343750
	0,109375	-0,984375	0,359375
	0,109375	-0,968750	0,343750
	0,109375	-0,968750	0,328125
	0,109375	-1,000000	0,296875
	0,125000	-0,968750	0,328125
	0,093750	-0,984375	0,359375
	0,171875	-0,968750	0,343750
	0,109375	-0,968750	0,312500
	0,125000	-0,953125	0,328125
	0,109375	-0,953125	0,359375
	0,125000	-0,984375	0,343750
	0,109375	-0,984375	0,343750
	0,109375	-0,968750	0,312500
	0,109375	-0,968750	0,328125
	0,125000	-0,968750	0,312500
	0,109375	-0,968750	0,343750
	0,125000	-0,968750	0,343750
	0,109375	-0,968750	0,328125
	0,109375	-0,968750	0,328125
	0,093750	-0,953125	0,359375
	0,125000	-0,984375	0,312500
	0,109375	-0,984375	0,343750
	0,078125	-0,953125	0,343750
	0,109375	-0,968750	0,359375
	0,109375	-0,953125	0,359375
	0,125000	-0,968750	0,328125
	0,125000	-0,937500	0,359375
	0,093750	-0,984375	0,312500
	0,093750	-0,968750	0,359375
	0,109375	-0,984375	0,343750
	0,125000	-0,968750	0,328125
	0,093750	-0,968750	0,328125
	0,093750	-0,968750	0,343750
	0,125000	-0,968750	0,328125
	0,125000	-0,968750	0,359375
	0,140625	-0,968750	0,359375
	0,140625	-0,984375	0,375000
	0,109375	-0,984375	0,390625
	0,109375	-0,984375	0,359375
	0,109375	-0,968750	0,343750
	0,125000	-0,968750	0,328125
	0,109375	-0,984375	0,328125
	0,109375	-0,984375	0,312500
	0,125000	-0,953125	0,343750
	0,109375	-0,984375	0,343750
	0,140625	-0,968750	0,312500
	0,140625	-0,937500	0,328125
	0,109375	-0,968750	0,343750
	0,109375	-1,000000	0,359375
	0,093750	-1,000000	0,343750
	0,125000	-0,968750	0,343750
	0,125000	-0,984375	0,328125
	0,093750	-0,984375	0,328125
	0,109375	-0,968750	0,343750
	0,109375	-0,953125	0,328125
	0,125000	-0,984375	0,343750
	0,125000	-0,937500	0,375000
	0,125000	-0,968750	0,343750
	0,093750	-0,984375	0,343750
	0,109375	-0,968750	0,390625
	0,109375	-0,984375	0,328125
	0,140625	-0,937500	0,343750
	0,125000	-0,953125	0,343750
	0,093750	-0,968750	0,343750
	0,140625	-0,953125	0,328125
	0,078125	-0,953125	0,328125
	0,093750	-0,968750	0,328125
	0,093750	-0,953125	0,328125
	0,109375	-1,000000	0,343750
	0,109375	-0,968750	0,343750
	0,140625	-0,953125	0,328125
	0,109375	-0,968750	0,328125
	0,125000	-0,984375	0,343750
	0,109375	-0,953125	0,328125
	0,109375	-0,984375	0,343750
	0,109375	-0,984375	0,359375
	0,140625	-0,921875	0,343750
	0,093750	-0,953125	0,343750
	0,109375	-0,937500	0,328125
	0,140625	-1,000000	0,328125
	0,109375	-0,984375	0,328125
	0,109375	-0,968750	0,343750
	0,109375	-0,968750	0,312500
	0,125000	-0,984375	0,343750
	0,109375	-0,984375	0,328125
	0,109375	-0,968750	0,312500
	0,125000	-0,937500	0,343750
	0,125000	-0,984375	0,343750
	0,125000	-0,968750	0,328125
	0,093750	-0,984375	0,328125
	0,078125	-0,953125	0,359375
	0,109375	-0,984375	0,328125
	0,125000	-0,984375	0,343750
	0,125000	-0,937500	0,343750
	0,125000	-0,984375	0,343750
	0,109375	-0,968750	0,328125
	0,187500	-0,906250	0,406250
	0,171875	-0,921875	0,359375
	0,109375	-0,968750	0,312500
	0,125000	-0,968750	0,328125
	0,125000	-0,937500	0,343750
	0,125000	-0,984375	0,343750
	0,078125	-0,984375	0,343750
	0,109375	-0,984375	0,343750
	0,093750	-0,968750	0,343750
	0,109375	-1,000000	0,343750
	0,171875	-0,953125	0,359375
	0,140625	-0,984375	0,328125
	0,125000	-0,984375	0,343750
	0,125000	-1,000000	0,359375
	0,125000	-1,000000	0,328125
	0,109375	-1,015625	0,328125
	0,093750	-0,953125	0,343750
	0,109375	-1,000000	0,343750
	0,109375	-0,953125	0,328125
	0,109375	-0,968750	0,343750
	0,125000	-0,968750	0,328125
	0,109375	-0,953125	0,359375
	0,171875	-0,937500	0,359375
	0,093750	-0,968750	0,328125
	0,140625	-0,984375	0,343750
	0,125000	-0,968750	0,328125
	0,109375	-0,968750	0,343750
	0,109375	-1,000000	0,328125
	0,109375	-0,968750	0,312500
	0,109375	-0,968750	0,343750
	0,156250	-0,937500	0,359375
	0,125000	-0,984375	0,328125
	0,109375	-0,968750	0,343750
	0,125000	-0,937500	0,343750
	0,109375	-0,968750	0,328125
	0,109375	-0,937500	0,343750
	0,109375	-0,968750	0,343750
	0,125000	-0,984375	0,328125
	0,109375	-1,000000	0,312500
	0,109375	-0,984375	0,312500
	0,125000	-1,000000	0,390625
	0,078125	-0,968750	0,343750
	0,093750	-0,968750	0,343750
	0,062500	-1,000000	0,250000
	0,093750	-0,968750	0,343750
	0,093750	-0,984375	0,343750
	0,093750	-0,984375	0,343750
	0,125000	-0,984375	0,328125
	0,109375	-0,968750	0,328125
	0,125000	-0,968750	0,328125
	0,109375	-0,968750	0,343750
	0,093750	-0,968750	0,328125
	0,109375	-0,953125	0,343750
	0,093750	-0,937500	0,328125
	0,109375	-0,968750	0,343750
	0,109375	-0,984375	0,312500
	0,109375	-0,984375	0,328125
	0,109375	-0,984375	0,312500
	0,109375	-0,937500	0,328125
	0,109375	-0,984375	0,343750
	0,156250	-0,937500	0,343750
	0,125000	-0,968750	0,312500
	0,109375	-0,984375	0,343750
	0,125000	-0,968750	0,328125
	0,062500	-1,031250	0,328125
	0,140625	-0,953125	0,343750
	0,140625	-0,968750	0,359375
	0,125000	-0,968750	0,328125
	0,109375	-0,984375	0,359375
	0,109375	-0,984375	0,328125
	0,109375	-0,968750	0,375000
	0,109375	-0,968750	0,343750
	0,093750	-0,968750	0,343750
	0,109375	-0,984375	0,328125
	0,109375	-0,921875	0,328125
	0,093750	-0,953125	0,328125
	0,109375	-0,968750	0,328125
	0,093750	-0,984375	0,312500
	0,109375	-0,984375	0,328125
	0,109375	-0,984375	0,343750
	0,156250	-0,984375	0,359375
	0,093750	-0,968750	0,328125
	0,109375	-0,984375	0,328125
	0,109375	-0,937500	0,343750
	0,109375	-0,968750	0,296875
	0,093750	-1,000000	0,343750
	0,109375	-1,000000	0,343750
	0,093750	-0,984375	0,343750
	0,093750	-0,968750	0,343750
	0,109375	-0,968750	0,328125
	0,171875	-0,953125	0,328125
	0,109375	-0,953125	0,312500
	0,109375	-0,968750	0,312500
	0,109375	-0,968750	0,296875
	0,140625	-0,968750	0,359375
	0,109375	-1,000000	0,343750
	0,140625	-0,984375	0,328125
	0,109375	-0,968750	0,343750
	0,109375	-0,953125	0,328125
	0,125000	-0,968750	0,328125
	0,140625	-0,984375	0,328125
	0,125000	-0,984375	0,312500
	0,093750	-0,968750	0,343750
	0,093750	-1,015625	0,328125
	0,109375	-0,968750	0,328125
	0,109375	-0,984375	0,312500
	0,125000	-0,984375	0,328125
	0,125000	-0,984375	0,343750
	0,109375	-0,968750	0,343750
	0,109375	-0,984375	0,343750
	0,125000	-0,953125	0,359375
	0,109375	-0,984375	0,328125
	0,093750	-0,968750	0,343750
	0,109375	-0,968750	0,343750
	0,109375	-0,937500	0,312500
	0,093750	-1,000000	0,328125
	0,093750	-0,953125	0,328125
	0,093750	-0,953125	0,343750
	0,109375	-0,984375	0,328125
	0,125000	-0,968750	0,343750
	0,109375	-0,968750	0,328125
	0,109375	-0,968750	0,343750
	0,109375	-0,953125	0,343750
	0,093750	-0,968750	0,359375
	0,109375	-0,968750	0,359375
	0,109375	-0,984375	0,312500
	0,109375	-0,968750	0,328125
	0,125000	-1,015625	0,359375
	0,125000	-0,984375	0,312500
	0,140625	-0,968750	0,343750
	0,140625	-0,906250	0,343750
	0,125000	-1,000000	0,343750
	0,125000	-0,968750	0,328125
	0,156250	-0,937500	0,343750
	0,125000	-0,937500	0,359375
	0,093750	-0,984375	0,359375
	0,125000	-0,968750	0,343750
	0,093750	-0,968750	0,343750
	0,125000	-0,968750	0,328125
	0,109375	-0,953125	0,296875
	0,125000	-0,953125	0,390625
	0,125000	-0,968750	0,328125
	0,093750	-0,953125	0,343750
	0,109375	-0,953125	0,328125
	0,093750	-0,968750	0,343750
	0,109375	-0,953125	0,328125
	0,156250	-0,953125	0,328125
	0,093750	-0,953125	0,343750
	0,109375	-0,968750	0,359375
	0,125000	-0,953125	0,328125
	0,125000	-0,953125	0,328125
	0,109375	-0,984375	0,359375
	0,109375	-0,984375	0,312500
	0,109375	-0,968750	0,328125
	0,125000	-1,000000	0,343750
	0,109375	-0,984375	0,328125
	0,140625	-0,984375	0,312500
	0,093750	-0,984375	0,328125
	0,140625	-0,984375	0,343750
	0,125000	-1,000000	0,312500
	0,156250	-0,937500	0,343750
	0,093750	-0,984375	0,312500
	0,109375	-1,000000	0,312500
	0,093750	-0,984375	0,312500
	0,109375	-0,984375	0,359375
	0,171875	-0,937500	0,375000
	0,140625	-0,953125	0,343750
	0,125000	-0,984375	0,343750
	0,140625	-0,968750	0,343750
	0,093750	-0,968750	0,359375
	0,125000	-0,937500	0,359375
	0,109375	-0,953125	0,343750
	0,093750	-0,953125	0,343750
	0,093750	-0,968750	0,359375
	0,125000	-0,968750	0,328125
	0,125000	-0,953125	0,328125
	0,109375	-0,984375	0,328125
	0,125000	-0,968750	0,343750
	0,125000	-0,984375	0,328125
	0,109375	-0,984375	0,343750
	0,109375	-0,968750	0,343750
	0,109375	-0,968750	0,343750
	0,125000	-1,000000	0,343750
	0,125000	-0,937500	0,359375
	0,078125	-0,984375	0,343750
	0,109375	-0,953125	0,343750
	0,125000	-0,953125	0,328125
	0,125000	-0,968750	0,312500
	0,109375	-0,984375	0,359375
	0,093750	-0,984375	0,343750
	0,140625	-0,921875	0,375000
	0,109375	-0,984375	0,343750
	0,093750	-0,937500	0,359375
	0,140625	-0,968750	0,343750
	0,109375	-0,968750	0,375000
	0,093750	-0,968750	0,328125
	0,109375	-1,000000	0,343750
	0,125000	-0,953125	0,328125
	0,093750	-0,921875	0,328125
	0,109375	-0,984375	0,328125
	0,125000	-0,968750	0,343750
	0,125000	-0,968750	0,375000
	0,109375	-1,000000	0,328125
	0,046875	-1,031250	0,296875
	0,125000	-0,984375	0,343750
	0,093750	-0,968750	0,328125
	0,125000	-0,968750	0,343750
	0,109375	-0,968750	0,359375
	0,093750	-0,968750	0,359375
	0,109375	-0,984375	0,375000
	0,125000	-0,937500	0,343750
	0,078125	-0,968750	0,343750
	0,109375	-0,968750	0,343750
	0,109375	-0,953125	0,343750
	0,109375	-0,984375	0,328125
	0,093750	-1,000000	0,328125
	0,078125	-0,968750	0,328125
	0,109375	-0,953125	0,343750
	0,109375	-1,015625	0,343750
	0,125000	-0,984375	0,343750
	0,109375	-0,953125	0,375000
	0,109375	-0,984375	0,343750
	0,109375	-0,953125	0,343750
	0,125000	-0,984375	0,343750
	0,125000	-0,984375	0,375000
	0,125000	-0,984375	0,359375
	0,109375	-0,984375	0,343750
	0,109375	-0,968750	0,343750
	0,109375	-0,984375	0,312500
	0,125000	-0,953125	0,343750
	0,109375	-0,953125	0,312500
	0,125000	-1,000000	0,359375
	0,125000	-0,953125	0,328125
	0,093750	-0,968750	0,328125
	0,093750	-0,984375	0,343750
	0,093750	-1,000000	0,343750
	0,109375	-0,968750	0,359375
	0,093750	-0,984375	0,343750
	0,109375	-0,984375	0,343750
	0,125000	-0,968750	0,343750
	0,140625	-0,937500	0,359375
	0,093750	-0,953125	0,328125
	0,093750	-0,984375	0,359375
	0,140625	-0,906250	0,375000
	0,093750	-1,000000	0,343750
	0,093750	-0,968750	0,343750
	0,109375	-1,000000	0,359375
	0,125000	-0,984375	0,343750
	0,125000	-1,000000	0,343750
	0,109375	-0,984375	0,343750
	0,109375	-0,968750	0,359375
	0,109375	-0,953125	0,343750
	0,109375	-0,984375	0,328125
	0,093750	-0,968750	0,343750
	0,093750	-0,968750	0,359375
	0,125000	-0,984375	0,328125
	0,093750	-0,968750	0,359375
	0,125000	-0,968750	0,343750
	0,125000	-0,984375	0,328125
	0,109375	-0,968750	0,328125
	0,140625	-0,937500	0,359375
	0,125000	-0,937500	0,375000
	0,093750	-0,968750	0,312500
	0,093750	-0,953125	0,328125
	0,125000	-0,984375	0,343750
	0,125000	-0,921875	0,375000
	0,125000	-0,984375	0,312500
	0,093750	-0,953125	0,328125
	0,093750	-0,984375	0,359375
	0,109375	-1,015625	0,328125
	0,140625	-0,953125	0,375000
	0,109375	-0,968750	0,343750
	0,109375	-0,984375	0,328125
	0,093750	-0,953125	0,343750
	0,109375	-0,968750	0,343750
	0,125000	-0,968750	0,359375
	0,109375	-0,968750	0,328125
	0,109375	-1,000000	0,328125
	0,109375	-0,968750	0,328125
	0,093750	-0,968750	0,343750
	0,109375	-0,953125	0,328125
	0,109375	-1,000000	0,359375
	0,093750	-0,953125	0,328125
	0,093750	-0,953125	0,328125
	0,125000	-1,000000	0,359375
	0,109375	-0,968750	0,328125
	0,093750	-0,984375	0,343750
	0,078125	-0,953125	0,312500
	0,109375	-0,968750	0,312500
	0,078125	-1,000000	0,343750
	0,156250	-0,937500	0,359375
	0,125000	-0,984375	0,343750
	0,125000	-0,953125	0,359375
	0,109375	-0,968750	0,375000
	0,109375	-0,984375	0,343750
	0,109375	-0,968750	0,328125
	0,093750	-0,968750	0,328125
	0,125000	-0,984375	0,328125
	0,109375	-0,984375	0,359375
	0,125000	-0,984375	0,343750
	0,125000	-0,937500	0,343750
	0,109375	-0,937500	0,359375
	0,109375	-0,953125	0,312500
	0,109375	-0,984375	0,328125
	0,046875	-1,000000	0,281250
	0,109375	-0,968750	0,343750
	0,093750	-0,984375	0,359375
	0,109375	-0,968750	0,359375
	0,125000	-0,984375	0,343750
	0,093750	-0,968750	0,359375
	0,125000	-0,984375	0,328125
	0,078125	-0,953125	0,328125
	0,109375	-0,968750	0,312500
	0,093750	-0,937500	0,359375
	0,109375	-0,984375	0,343750
	0,109375	-0,984375	0,343750
	0,109375	-1,000000	0,343750
	0,125000	-0,953125	0,343750
	0,109375	-0,968750	0,343750
	0,093750	-0,984375	0,343750
	0,171875	-0,953125	0,359375
	0,109375	-0,968750	0,328125
	0,109375	-0,968750	0,328125
	0,109375	-0,984375	0,328125
	0,109375	-1,000000	0,328125
	0,093750	-0,968750	0,343750
	0,125000	-0,968750	0,328125
	0,109375	-0,984375	0,359375
	0,140625	-1,000000	0,343750
	0,109375	-0,953125	0,343750
	0,125000	-0,921875	0,359375
	0,140625	-0,953125	0,359375
	0,093750	-0,953125	0,375000
	0,109375	-0,968750	0,328125
	0,125000	-0,984375	0,343750
	0,093750	-0,968750	0,343750
	0,125000	-0,968750	0,328125
	0,093750	-0,968750	0,343750
	0,093750	-0,984375	0,359375
	0,140625	-0,984375	0,328125
	0,140625	-0,937500	0,359375
	0,093750	-0,968750	0,328125
	0,125000	-0,968750	0,312500
	0,140625	-0,968750	0,343750
	0,125000	-0,968750	0,328125
	0,125000	-0,984375	0,328125
	0,125000	-0,968750	0,359375
	0,093750	-0,968750	0,343750
	0,109375	-0,968750	0,343750
	0,109375	-0,968750	0,312500
	0,125000	-0,937500	0,375000
	0,109375	-0,953125	0,312500
	0,109375	-0,968750	0,343750
	0,109375	-0,953125	0,343750
	0,062500	-1,015625	0,296875
	0,093750	-0,984375	0,343750
	0,093750	-0,968750	0,296875
	0,125000	-0,984375	0,296875
	0,109375	-0,968750	0,343750
	0,109375	-0,953125	0,343750
	0,109375	-0,984375	0,328125
	0,109375	-0,984375	0,328125
	0,078125	-1,000000	0,343750
	0,093750	-0,984375	0,328125
	0,109375	-0,984375	0,312500
	0,171875	-0,937500	0,375000
	0,109375	-0,968750	0,343750
	0,109375	-0,984375	0,359375
	0,125000	-0,968750	0,328125
	0,125000	-1,000000	0,359375
	0,125000	-0,937500	0,343750
	0,109375	-0,984375	0,328125
	0,109375	-0,968750	0,343750
	0,140625	-0,953125	0,359375
	0,109375	-0,968750	0,312500
	0,125000	-0,984375	0,359375
	0,109375	-0,968750	0,343750
	0,109375	-0,968750	0,359375
	0,125000	-0,953125	0,312500
	0,109375	-0,968750	0,343750
	0,125000	-0,953125	0,343750
	0,109375	-0,968750	0,375000
	0,109375	-0,968750	0,328125
	0,125000	-1,000000	0,343750
	0,140625	-1,000000	0,375000
	0,093750	-0,968750	0,359375
	0,093750	-0,953125	0,343750
	0,125000	-0,984375	0,359375
	0,125000	-0,953125	0,312500
	0,109375	-0,968750	0,343750
	0,125000	-0,937500	0,375000
	0,109375	-0,968750	0,343750
	0,109375	-0,984375	0,312500
	0,093750	-1,000000	0,343750
	0,125000	-0,968750	0,296875
	0,109375	-0,953125	0,312500
	0,125000	-0,984375	0,328125
	0,125000	-0,953125	0,328125
	0,109375	-0,968750	0,328125
	0,125000	-0,984375	0,359375
	0,093750	-0,921875	0,375000
	0,093750	-0,953125	0,312500
	0,156250	-0,953125	0,343750
	0,109375	-0,984375	0,343750
	0,093750	-0,968750	0,359375
	0,109375	-0,953125	0,328125
	0,140625	-0,968750	0,328125
	0,109375	-0,984375	0,312500
	0,109375	-0,968750	0,359375
	0,125000	-0,968750	0,343750
	0,140625	-1,000000	0,328125
	0,125000	-0,968750	0,312500
	0,093750	-0,953125	0,343750
	0,093750	-1,015625	0,343750
	0,109375	-0,984375	0,328125
	0,109375	-0,953125	0,343750
	0,109375	-0,953125	0,328125
	0,125000	-0,968750	0,328125
	0,109375	-0,953125	0,328125
	0,093750	-1,000000	0,328125
	0,125000	-0,921875	0,343750
	0,109375	-0,984375	0,328125
	0,093750	-1,000000	0,328125
	0,093750	-0,984375	0,312500
	0,093750	-0,984375	0,328125
	0,093750	-0,968750	0,328125
	0,109375	-1,000000	0,359375
	0,125000	-0,968750	0,328125
	0,109375	-0,968750	0,328125
	0,109375	-0,984375	0,343750
	0,140625	-0,937500	0,343750
	0,125000	-0,984375	0,343750
	0,109375	-1,000000	0,296875
	0,109375	-0,968750	0,312500
	0,140625	-0,968750	0,328125
	0,125000	-0,984375	0,328125
	0,078125	-0,984375	0,328125
	0,140625	-0,984375	0,312500
	0,125000	-0,984375	0,312500
	0,125000	-0,984375	0,312500
	0,156250	-0,921875	0,359375
	0,093750	-1,000000	0,328125
	0,093750	-0,968750	0,312500
	0,093750	-0,968750	0,343750
	0,109375	-0,968750	0,328125
	0,109375	-0,968750	0,343750
	0,125000	-0,968750	0,343750
	0,125000	-0,968750	0,343750
	0,125000	-0,968750	0,359375
	0,140625	-0,984375	0,312500
	0,125000	-0,937500	0,328125
	0,140625	-0,984375	0,312500
	0,125000	-0,984375	0,328125
	0,046875	-1,000000	0,281250
	0,109375	-0,968750	0,328125
	0,109375	-1,000000	0,343750
	0,109375	-0,984375	0,375000
	0,109375	-0,984375	0,343750
	0,109375	-0,968750	0,343750
	0,093750	-0,968750	0,343750
	0,109375	-0,953125	0,312500
	0,093750	-1,000000	0,312500
	0,125000	-0,968750	0,328125
	0,109375	-0,968750	0,359375
	0,093750	-0,968750	0,328125
	0,093750	-0,968750	0,328125
	0,109375	-0,984375	0,328125
	0,078125	-0,968750	0,312500
	0,125000	-1,000000	0,343750
	0,109375	-0,984375	0,312500
	0,140625	-0,921875	0,359375
	0,109375	-0,984375	0,359375
	0,093750	-0,953125	0,312500
	0,093750	-0,953125	0,328125
	0,125000	-0,968750	0,328125
	0,109375	-0,984375	0,328125
	0,125000	-0,984375	0,343750
	0,093750	-0,968750	0,343750
	0,140625	-1,000000	0,328125
	0,109375	-0,953125	0,328125
	0,140625	-0,953125	0,343750
	0,109375	-0,968750	0,343750
	0,093750	-1,000000	0,312500
	0,093750	-0,968750	0,296875
	0,125000	-0,984375	0,359375
	0,125000	-0,968750	0,312500
	0,109375	-0,984375	0,312500
	0,093750	-0,968750	0,312500
	0,125000	-0,968750	0,343750
	0,125000	-0,984375	0,328125
	0,093750	-0,984375	0,328125
	0,140625	-0,968750	0,312500
	0,125000	-0,968750	0,343750
	0,093750	-0,984375	0,296875
	0,109375	-0,953125	0,328125
	0,093750	-0,984375	0,312500
	0,109375	-0,984375	0,328125
	0,093750	-0,984375	0,343750
	0,109375	-0,984375	0,343750
	0,109375	-0,968750	0,343750
	0,156250	-0,953125	0,343750
	0,062500	-0,984375	0,359375
	0,093750	-0,984375	0,312500
	0,093750	-1,015625	0,328125
	0,125000	-0,984375	0,328125
	0,109375	-0,984375	0,343750
	0,093750	-0,968750	0,343750
	0,125000	-0,968750	0,328125
	0,125000	-0,984375	0,328125
	0,125000	-1,015625	0,328125
	0,109375	-0,953125	0,343750
	0,125000	-0,968750	0,296875
	0,109375	-0,968750	0,312500
	0,125000	-1,000000	0,312500
	0,093750	-0,953125	0,312500
	0,078125	-0,968750	0,328125
	0,125000	-0,953125	0,312500
	0,109375	-0,968750	0,328125
	0,109375	-0,968750	0,328125
	0,125000	-0,984375	0,343750
	0,140625	-0,953125	0,390625
	0,093750	-0,984375	0,328125
	0,109375	-0,984375	0,328125
	0,125000	-0,984375	0,328125
	0,109375	-0,984375	0,343750
	0,125000	-0,984375	0,328125
	0,125000	-0,984375	0,328125
	0,140625	-0,968750	0,328125
	0,093750	-0,953125	0,359375
	0,125000	-0,968750	0,343750
	0,156250	-0,953125	0,359375
	0,093750	-0,984375	0,328125
	0,093750	-0,984375	0,343750
	0,125000	-0,953125	0,343750
	0,109375	-0,968750	0,328125
	0,125000	-0,953125	0,328125
	0,109375	-0,984375	0,343750
	0,125000	-1,000000	0,343750
	0,109375	-1,000000	0,328125
	0,109375	-0,968750	0,359375
	0,109375	-0,937500	0,312500
	0,125000	-0,984375	0,343750
	0,109375	-0,953125	0,343750
	0,109375	-0,968750	0,296875
	0,125000	-0,968750	0,328125
	0,109375	-0,984375	0,343750
	0,140625	-1,000000	0,343750
	0,093750	-0,984375	0,343750
	0,125000	-0,953125	0,328125
	0,109375	-0,968750	0,343750
	0,140625	-0,906250	0,343750
	0,109375	-1,000000	0,343750
	0,125000	-1,000000	0,359375
	0,078125	-0,984375	0,328125
	0,093750	-0,968750	0,343750
	0,109375	-0,968750	0,343750
	0,109375	-0,968750	0,328125
	0,125000	-0,968750	0,312500
	0,109375	-0,968750	0,328125
	0,093750	-0,968750	0,343750
	0,125000	-0,937500	0,343750
	0,140625	-0,968750	0,328125
	0,125000	-0,937500	0,328125
	0,093750	-0,984375	0,328125
	0,109375	-0,953125	0,328125
	0,109375	-0,968750	0,328125
	0,109375	-0,968750	0,328125
	0,125000	-0,968750	0,343750
	0,109375	-0,984375	0,328125
	0,093750	-0,968750	0,328125
	0,109375	-0,937500	0,375000
	0,093750	-0,984375	0,343750
	0,109375	-0,968750	0,328125
	0,109375	-0,984375	0,343750
	0,093750	-0,968750	0,343750
	0,109375	-0,968750	0,343750
	0,109375	-0,968750	0,328125
	0,125000	-0,937500	0,359375
	0,093750	-0,984375	0,359375
	0,125000	-0,984375	0,328125
	0,140625	-0,953125	0,359375
	0,125000	-0,984375	0,312500
	0,125000	-1,000000	0,343750
	0,125000	-0,984375	0,312500
	0,078125	-0,984375	0,328125
	0,078125	-0,937500	0,312500
	0,093750	-0,953125	0,328125
	0,125000	-0,984375	0,343750
	0,109375	-0,984375	0,343750
	0,109375	-0,968750	0,359375
	0,125000	-0,953125	0,328125
	0,093750	-0,984375	0,343750
	0,109375	-0,968750	0,328125
	0,109375	-0,968750	0,343750
	0,109375	-0,984375	0,343750
	0,125000	-0,968750	0,343750
	0,125000	-0,984375	0,312500
	0,109375	-0,968750	0,359375
	0,140625	-0,984375	0,328125
	0,125000	-0,968750	0,359375
	0,140625	-0,937500	0,375000
	0,109375	-0,968750	0,343750
	0,125000	-0,984375	0,343750
	0,125000	-1,000000	0,328125
	0,093750	-1,000000	0,312500
	0,109375	-0,953125	0,375000
	0,109375	-0,968750	0,328125
	0,109375	-0,984375	0,328125
	0,125000	-0,968750	0,328125
	0,109375	-0,968750	0,343750
	0,156250	-0,968750	0,359375
	0,125000	-0,937500	0,343750
	0,109375	-0,984375	0,343750
	0,125000	-0,984375	0,328125
	0,125000	-0,968750	0,296875
	0,125000	-0,953125	0,296875
	0,109375	-0,968750	0,343750
	0,125000	-1,000000	0,375000
	0,109375	-0,953125	0,343750
	0,125000	-0,984375	0,343750
	0,109375	-0,953125	0,328125
	0,109375	-0,953125	0,328125
	0,062500	-1,015625	0,328125
	0,093750	-1,000000	0,328125
	0,125000	-0,984375	0,343750
	0,109375	-0,968750	0,328125
	0,125000	-1,000000	0,328125
	0,125000	-0,984375	0,343750
	0,125000	-0,968750	0,343750
	0,125000	-0,968750	0,343750
	0,156250	-0,984375	0,359375
	0,109375	-0,968750	0,343750
	0,125000	-0,984375	0,328125
	0,109375	-0,984375	0,359375
	0,140625	-0,968750	0,328125
	0,125000	-0,984375	0,328125
	0,109375	-0,968750	0,343750
	0,125000	-0,984375	0,343750
	0,093750	-0,968750	0,343750
	0,109375	-0,968750	0,343750
	0,140625	-0,953125	0,359375
	0,109375	-0,984375	0,359375
	0,093750	-0,968750	0,343750
	0,093750	-0,984375	0,312500
	0,140625	-0,968750	0,328125
	0,125000	-0,968750	0,343750
	0,109375	-0,968750	0,343750
	0,125000	-0,968750	0,343750
	0,109375	-0,968750	0,343750
	0,125000	-1,000000	0,343750
	0,156250	-0,953125	0,359375
	0,125000	-0,953125	0,359375
	0,093750	-0,953125	0,343750
	0,093750	-0,984375	0,328125
	0,125000	-0,968750	0,328125
	0,125000	-0,968750	0,312500
	0,109375	-0,968750	0,359375
	0,109375	-0,984375	0,343750
	0,093750	-0,984375	0,328125
	0,109375	-0,953125	0,343750
	0,140625	-0,937500	0,406250
	0,125000	-1,000000	0,343750
	0,093750	-0,968750	0,343750
	0,078125	-0,937500	0,328125
	0,093750	-0,937500	0,359375
	0,109375	-0,953125	0,359375
	0,109375	-0,968750	0,359375
	0,109375	-0,953125	0,312500
	0,125000	-0,968750	0,343750
	0,125000	-0,953125	0,343750
	0,109375	-0,968750	0,328125
	0,093750	-0,984375	0,343750
	0,109375	-0,984375	0,343750
	0,125000	-1,000000	0,343750
	0,109375	-0,968750	0,328125
	0,109375	-0,984375	0,328125
	0,093750	-0,953125	0,343750
	0,109375	-0,968750	0,359375
	0,125000	-0,953125	0,343750
	0,109375	-0,984375	0,312500
	0,156250	-0,937500	0,359375
	0,125000	-0,968750	0,312500
	0,093750	-0,953125	0,328125
	0,093750	-0,968750	0,375000
	0,109375	-0,953125	0,343750
	0,140625	-0,968750	0,343750
	0,140625	-0,953125	0,343750
	0,125000	-0,968750	0,343750
	0,125000	-0,968750	0,328125
	0,109375	-0,968750	0,343750
	0,140625	-0,984375	0,343750
	0,125000	-0,968750	0,343750
	0,109375	-0,968750	0,328125
	0,109375	-1,000000	0,296875
	0,078125	-0,953125	0,328125
	0,093750	-0,968750	0,359375
	0,109375	-0,984375	0,343750
	0,078125	-0,968750	0,359375
	0,125000	-0,968750	0,328125
	0,109375	-0,968750	0,328125
	0,156250	-0,968750	0,375000
	0,109375	-0,968750	0,328125
	0,125000	-0,984375	0,343750
	0,093750	-0,984375	0,328125
	0,109375	-1,000000	0,328125
	0,109375	-0,984375	0,328125
	0,093750	-0,968750	0,343750
	0,093750	-0,984375	0,359375
	0,093750	-0,968750	0,343750
	0,109375	-0,984375	0,343750
	0,156250	-0,937500	0,343750
	0,093750	-0,984375	0,359375
	0,109375	-0,984375	0,343750
	0,078125	-0,953125	0,343750
	0,093750	-0,968750	0,343750
	0,093750	-0,984375	0,343750
	0,093750	-0,984375	0,328125
	0,109375	-0,968750	0,343750
	0,125000	-0,984375	0,359375
	0,093750	-0,968750	0,328125
	0,109375	-0,968750	0,343750
	0,109375	-0,968750	0,359375
	0,125000	-0,984375	0,343750
	0,140625	-0,953125	0,375000
	0,109375	-0,968750	0,375000
	0,140625	-0,968750	0,296875
	0,078125	-0,968750	0,328125
	0,093750	-0,968750	0,343750
	0,140625	-0,984375	0,343750
	0,109375	-0,968750	0,343750
	0,140625	-0,921875	0,343750
	0,093750	-0,953125	0,328125
	0,093750	-0,937500	0,359375
	0,109375	-0,968750	0,328125
	0,109375	-0,984375	0,359375
	0,078125	-0,968750	0,343750
	0,109375	-0,984375	0,343750
	0,109375	-0,968750	0,328125
	0,109375	-0,984375	0,343750
	0,109375	-0,968750	0,359375
	0,125000	-0,968750	0,343750
	0,109375	-0,968750	0,359375
	0,093750	-0,984375	0,343750
	0,078125	-0,921875	0,312500
	0,093750	-0,984375	0,359375
	0,109375	-0,984375	0,328125
	0,078125	-0,984375	0,375000
	0,109375	-0,953125	0,359375
	0,125000	-1,000000	0,328125
	0,140625	-0,968750	0,328125
	0,140625	-0,953125	0,375000
	0,109375	-0,968750	0,343750
	0,140625	-0,984375	0,328125
	0,140625	-0,953125	0,343750
	0,093750	-0,984375	0,343750
	0,109375	-0,984375	0,343750
	0,125000	-0,984375	0,328125
	0,109375	-0,953125	0,328125
	0,093750	-0,984375	0,343750
	0,125000	-0,968750	0,343750
	0,140625	-0,953125	0,375000
	0,093750	-0,968750	0,328125
	0,125000	-0,953125	0,343750
	0,078125	-0,984375	0,328125
	0,109375	-0,968750	0,343750
	0,140625	-0,953125	0,343750
	0,140625	-0,968750	0,375000
	0,109375	-0,953125	0,328125
	0,125000	-0,953125	0,328125
	0,125000	-0,968750	0,328125
	0,109375	-0,984375	0,359375
	0,125000	-0,968750	0,343750
	0,125000	-0,968750	0,328125
	0,140625	-0,968750	0,359375
	0,109375	-1,000000	0,343750
	0,109375	-0,984375	0,343750
	0,109375	-0,968750	0,343750
	0,125000	-0,953125	0,328125
	0,125000	-0,968750	0,328125
	0,125000	-1,015625	0,343750
	0,140625	-0,921875	0,375000
	0,125000	-0,984375	0,328125
	0,109375	-0,968750	0,359375
	0,093750	-1,000000	0,328125
	0,109375	-0,984375	0,343750
	0,125000	-0,968750	0,328125
	0,109375	-0,968750	0,343750
	0,109375	-0,968750	0,390625
	0,125000	-0,968750	0,312500
	0,125000	-0,953125	0,343750
	0,140625	-0,953125	0,328125
	0,140625	-0,968750	0,328125
	0,125000	-0,984375	0,359375
	0,140625	-0,953125	0,328125
	0,125000	-0,968750	0,328125
	0,109375	-0,968750	0,296875
	0,125000	-0,984375	0,343750
	0,109375	-0,984375	0,343750
	0,109375	-0,953125	0,328125
	0,109375	-0,984375	0,328125
	0,078125	-0,984375	0,375000
	0,109375	-0,984375	0,328125
	0,125000	-0,984375	0,343750
	0,140625	-0,968750	0,343750
	0,093750	-0,984375	0,312500
	0,125000	-0,968750	0,328125
	0,109375	-0,968750	0,328125
	0,078125	-0,968750	0,328125
	0,109375	-0,984375	0,343750
	0,109375	-0,953125	0,312500
	0,125000	-0,968750	0,375000
	0,109375	-0,968750	0,328125
	0,125000	-0,953125	0,343750
	0,109375	-1,000000	0,343750
	0,109375	-0,968750	0,343750
	0,109375	-0,984375	0,312500
	0,109375	-0,968750	0,328125
	0,093750	-0,968750	0,328125
	0,125000	-0,953125	0,328125
	0,125000	-0,968750	0,343750
	0,109375	-0,937500	0,375000
	0,125000	-0,968750	0,328125
	0,109375	-0,953125	0,312500
	0,109375	-1,015625	0,296875
	0,125000	-1,000000	0,328125
	0,109375	-0,984375	0,328125
	0,109375	-0,968750	0,343750
	0,125000	-0,968750	0,343750
	0,078125	-0,984375	0,343750
	0,125000	-0,968750	0,312500
	0,125000	-0,984375	0,390625
	0,109375	-0,984375	0,312500
	0,109375	-1,000000	0,312500
	0,109375	-1,000000	0,328125
	0,093750	-0,968750	0,328125
	0,093750	-0,984375	0,328125
	0,125000	-0,984375	0,328125
	0,125000	-0,968750	0,312500
	0,093750	-0,984375	0,328125
	0,125000	-0,968750	0,328125
	0,140625	-0,937500	0,359375
	0,125000	-0,968750	0,328125
	0,109375	-0,984375	0,296875
	0,125000	-0,984375	0,359375
	0,125000	-0,984375	0,328125
	0,093750	-1,000000	0,343750
	0,125000	-0,968750	0,343750
	0,109375	-1,000000	0,328125
	0,125000	-0,968750	0,328125
	0,109375	-0,953125	0,328125
	0,156250	-0,984375	0,328125
	0,093750	-0,953125	0,328125
	0,125000	-0,984375	0,328125
	0,093750	-0,968750	0,343750
	0,140625	-0,968750	0,359375
	0,109375	-0,968750	0,296875
	0,125000	-0,968750	0,343750
	0,109375	-0,953125	0,328125
	0,078125	-0,953125	0,328125
	0,093750	-0,984375	0,328125
	0,140625	-0,953125	0,375000
	0,109375	-0,984375	0,328125
	0,140625	-0,968750	0,390625
	0,109375	-0,984375	0,312500
	0,125000	-0,984375	0,343750
	0,140625	-0,921875	0,375000
	0,156250	-0,984375	0,312500
	0,093750	-0,968750	0,328125
	0,093750	-0,984375	0,328125
	0,109375	-0,968750	0,328125
	0,140625	-0,953125	0,343750
	0,156250	-0,968750	0,328125
	0,125000	-0,984375	0,343750
	0,125000	-0,953125	0,375000
	0,125000	-0,984375	0,390625
	0,093750	-0,968750	0,343750
	0,093750	-0,968750	0,328125
	0,125000	-0,984375	0,328125
	0,093750	-1,000000	0,328125
	0,109375	-0,968750	0,328125
	0,125000	-0,937500	0,359375
	0,125000	-0,968750	0,312500
	0,125000	-0,921875	0,343750
	0,125000	-0,984375	0,343750
	0,109375	-0,968750	0,312500
	0,109375	-1,000000	0,328125
	0,125000	-1,000000	0,343750
	0,109375	-0,968750	0,343750
	0,125000	-1,000000	0,296875
	0,109375	-0,984375	0,312500
	0,140625	-0,921875	0,375000
	0,093750	-0,953125	0,328125
	0,125000	-0,968750	0,343750
	0,093750	-1,000000	0,328125
	0,140625	-1,000000	0,359375
	0,109375	-0,968750	0,359375
	0,125000	-0,984375	0,328125
	0,109375	-0,984375	0,328125
	0,109375	-0,984375	0,312500
	0,109375	-1,000000	0,343750
	0,093750	-0,984375	0,343750
	0,109375	-0,984375	0,312500
	0,093750	-1,031250	0,343750
	0,109375	-0,984375	0,343750
	0,109375	-0,968750	0,312500
	0,109375	-0,984375	0,328125
	0,109375	-0,968750	0,296875
	0,093750	-0,953125	0,328125
	0,109375	-0,984375	0,328125
	0,109375	-0,968750	0,328125
	0,140625	-0,968750	0,343750
	0,109375	-0,968750	0,312500
	0,140625	-0,984375	0,328125
	0,109375	-1,000000	0,296875
	0,109375	-0,984375	0,343750
	0,109375	-0,953125	0,328125
	0,093750	-0,984375	0,359375
	0,125000	-0,984375	0,328125
	0,093750	-0,968750	0,328125
	0,125000	-1,000000	0,343750
	0,140625	-0,984375	0,312500
	0,140625	-0,968750	0,343750
	0,125000	-0,937500	0,328125
	0,109375	-0,984375	0,343750
	0,109375	-0,968750	0,328125
	0,093750	-0,968750	0,343750
	0,109375	-0,968750	0,359375
	0,125000	-0,968750	0,312500
	0,125000	-0,953125	0,359375
	0,109375	-0,968750	0,343750
	0,093750	-0,937500	0,375000
	0,109375	-0,984375	0,343750
	0,125000	-0,968750	0,328125
	0,109375	-0,968750	0,343750
	0,093750	-1,015625	0,296875
	0,125000	-0,953125	0,343750
	0,109375	-0,968750	0,343750
	0,093750	-0,984375	0,343750
	0,109375	-0,953125	0,328125
	0,109375	-0,953125	0,328125
	0,156250	-0,937500	0,343750
	0,125000	-0,984375	0,328125
	0,093750	-1,000000	0,328125
	0,125000	-0,968750	0,312500
	0,109375	-0,968750	0,343750
	0,109375	-0,968750	0,312500
	0,109375	-0,968750	0,312500
	0,109375	-0,984375	0,328125
	0,125000	-0,968750	0,328125
	0,109375	-0,984375	0,328125
	0,109375	-0,984375	0,328125
	0,125000	-1,000000	0,328125
	0,093750	-0,984375	0,343750
	0,125000	-0,984375	0,312500
	0,109375	-0,968750	0,328125
	0,093750	-0,968750	0,343750
	0,125000	-0,984375	0,328125
	0,109375	-1,000000	0,343750
	0,109375	-0,968750	0,359375
	0,109375	-0,953125	0,328125
	0,140625	-0,968750	0,359375
	0,109375	-0,984375	0,343750
	0,125000	-1,000000	0,343750
	0,109375	-0,968750	0,343750
	0,109375	-0,968750	0,312500
	0,140625	-0,921875	0,359375
	0,125000	-0,984375	0,359375
	0,109375	-0,937500	0,312500
	0,109375	-0,984375	0,343750
	0,125000	-0,968750	0,312500
	0,093750	-0,937500	0,343750
	0,140625	-0,937500	0,343750
	0,093750	-0,968750	0,343750
	0,125000	-0,984375	0,343750
	0,109375	-0,984375	0,328125
	0,125000	-0,984375	0,343750
	0,109375	-0,984375	0,328125
	0,125000	-0,984375	0,312500
	0,109375	-1,000000	0,359375
	0,125000	-0,984375	0,343750
	0,140625	-0,937500	0,406250
	0,140625	-0,984375	0,343750
	0,109375	-0,953125	0,343750
	0,078125	-0,984375	0,296875
	0,140625	-0,984375	0,343750
	0,125000	-0,968750	0,328125
	0,109375	-0,968750	0,328125
	0,109375	-0,984375	0,328125
	0,093750	-0,968750	0,359375
	0,125000	-1,000000	0,359375
	0,187500	-0,937500	0,328125
	0,078125	-0,968750	0,343750
	0,125000	-1,000000	0,359375
	0,078125	-1,000000	0,312500
	0,078125	-0,968750	0,312500
	0,109375	-0,984375	0,359375
	0,109375	-0,968750	0,312500
	0,109375	-0,968750	0,328125
	0,078125	-0,984375	0,343750
	0,109375	-0,953125	0,343750
	0,125000	-0,968750	0,343750
	0,109375	-0,953125	0,343750
	0,125000	-0,968750	0,375000
	0,109375	-0,984375	0,328125
	0,109375	-0,968750	0,359375
	0,125000	-0,968750	0,343750
	0,109375	-0,984375	0,343750
	0,093750	-0,968750	0,359375
	0,125000	-0,968750	0,312500
	0,109375	-0,953125	0,328125
	0,140625	-0,953125	0,359375
	0,093750	-0,984375	0,343750
	0,093750	-1,000000	0,359375
	0,125000	-0,953125	0,343750
	0,109375	-0,968750	0,328125
	0,125000	-0,968750	0,328125
	0,109375	-0,953125	0,343750
	0,140625	-0,984375	0,328125
	0,109375	-0,953125	0,343750
	0,093750	-0,968750	0,343750
	0,125000	-0,937500	0,390625
	0,125000	-0,984375	0,343750
	0,125000	-0,984375	0,296875
	0,093750	-1,000000	0,296875
	0,109375	-0,968750	0,328125
	0,109375	-0,968750	0,312500
	0,109375	-0,984375	0,328125
	0,093750	-0,968750	0,312500
	0,109375	-0,953125	0,328125
	0,109375	-0,984375	0,328125
	0,093750	-0,968750	0,343750
	0,093750	-0,968750	0,328125
	0,140625	-0,984375	0,359375
	0,109375	-0,984375	0,375000
	0,109375	-0,953125	0,312500
	0,109375	-0,937500	0,328125
	0,125000	-1,000000	0,359375
	0,125000	-0,968750	0,328125
	0,093750	-0,968750	0,328125
	0,093750	-0,953125	0,328125
	0,125000	-0,953125	0,390625
	0,109375	-0,984375	0,328125
	0,109375	-0,937500	0,312500
	0,109375	-0,968750	0,343750
	0,109375	-1,000000	0,312500
	0,109375	-0,968750	0,328125
	0,109375	-1,000000	0,343750
	0,125000	-0,984375	0,343750
	0,109375	-0,984375	0,328125
	0,109375	-0,984375	0,359375
	0,125000	-0,968750	0,359375
	0,109375	-0,984375	0,328125
	0,093750	-0,984375	0,359375
	0,109375	-0,984375	0,312500
	0,093750	-0,953125	0,359375
	0,125000	-0,984375	0,343750
	0,093750	-0,968750	0,343750
	0,125000	-0,968750	0,343750
	0,109375	-0,984375	0,343750
	0,109375	-0,968750	0,312500
	0,203125	-0,906250	0,343750
	0,171875	-0,921875	0,406250
	0,093750	-0,984375	0,343750
	0,109375	-0,984375	0,343750
	0,125000	-0,968750	0,328125
	0,125000	-0,937500	0,375000
	0,093750	-0,953125	0,328125
	0,093750	-0,968750	0,343750
	0,125000	-0,968750	0,328125
	0,109375	-0,968750	0,343750
	0,125000	-0,921875	0,343750
	0,109375	-0,968750	0,328125
	0,109375	-0,968750	0,343750
	0,078125	-0,968750	0,359375
	0,125000	-0,984375	0,328125
	0,125000	-0,968750	0,359375
	0,093750	-0,984375	0,343750
	0,109375	-1,000000	0,328125
	0,109375	-0,968750	0,343750
	0,109375	-0,984375	0,328125
	0,078125	-0,968750	0,359375
	0,093750	-0,953125	0,359375
	0,109375	-0,984375	0,343750
	0,109375	-0,937500	0,328125
	0,109375	-0,968750	0,343750
	0,093750	-0,968750	0,359375
	0,109375	-0,968750	0,328125
	0,125000	-0,968750	0,343750
	0,109375	-0,984375	0,312500
	0,125000	-0,953125	0,343750
	0,125000	-0,937500	0,390625
	0,109375	-0,953125	0,343750
	0,109375	-0,968750	0,359375
	0,109375	-0,968750	0,312500
	0,125000	-0,984375	0,328125
	0,125000	-0,984375	0,328125
	0,125000	-0,984375	0,312500
	0,093750	-0,968750	0,328125
	0,109375	-0,984375	0,328125
	0,093750	-0,968750	0,343750
	0,109375	-0,984375	0,359375
	0,140625	-0,968750	0,328125
	0,109375	-0,968750	0,328125
	0,109375	-1,000000	0,359375
	0,093750	-0,984375	0,375000
	0,109375	-0,984375	0,312500
	0,093750	-0,984375	0,359375
	0,109375	-0,984375	0,359375
	0,109375	-0,984375	0,328125
	0,078125	-0,984375	0,359375
	0,140625	-0,921875	0,359375
	0,093750	-0,953125	0,328125
	0,093750	-0,937500	0,359375
	0,062500	-0,984375	0,312500
	0,093750	-0,984375	0,343750
	0,125000	-0,984375	0,328125
	0,125000	-0,984375	0,359375
	0,125000	-0,968750	0,343750
	0,093750	-0,968750	0,328125
	0,093750	-0,953125	0,359375
	0,109375	-0,953125	0,359375
	0,125000	-0,968750	0,343750
	0,109375	-0,968750	0,328125
	0,109375	-0,984375	0,343750
	0,109375	-0,968750	0,359375
	0,125000	-0,984375	0,312500
	0,109375	-0,984375	0,343750
	0,109375	-0,968750	0,343750
	0,125000	-0,968750	0,328125
	0,093750	-0,984375	0,343750
	0,109375	-0,984375	0,312500
	0,140625	-0,984375	0,328125
	0,109375	-0,968750	0,343750
	0,062500	-1,000000	0,343750
	0,109375	-0,984375	0,328125
	0,093750	-0,968750	0,343750
	0,156250	-1,000000	0,328125
	0,125000	-0,984375	0,281250
	0,109375	-0,984375	0,343750
	0,093750	-0,968750	0,343750
	0,125000	-0,937500	0,390625
	0,109375	-0,968750	0,343750
	0,125000	-0,968750	0,328125
	0,109375	-0,968750	0,328125
	0,109375	-0,984375	0,359375
	0,125000	-0,968750	0,343750
	0,093750	-1,000000	0,375000
	0,109375	-0,984375	0,343750
	0,093750	-0,984375	0,359375
	0,093750	-1,000000	0,343750
	0,156250	-0,968750	0,359375
	0,093750	-0,984375	0,359375
	0,093750	-0,937500	0,343750
	0,140625	-0,984375	0,328125
	0,125000	-0,968750	0,296875
	0,093750	-0,968750	0,328125
	0,093750	-0,968750	0,359375
	0,093750	-0,984375	0,328125
	0,109375	-0,968750	0,343750
	0,109375	-0,984375	0,328125
	0,156250	-0,953125	0,359375
	0,109375	-0,984375	0,359375
	0,093750	-0,968750	0,343750
	0,125000	-0,953125	0,328125
	0,109375	-0,968750	0,328125
	0,171875	-0,968750	0,406250
	0,125000	-0,984375	0,328125
	0,125000	-0,968750	0,343750
	0,109375	-0,968750	0,328125
	0,093750	-0,984375	0,343750
	0,156250	-0,968750	0,406250
	0,140625	-0,984375	0,312500
	0,093750	-0,984375	0,343750
	0,125000	-1,000000	0,328125
	0,109375	-0,953125	0,328125
	0,109375	-0,984375	0,343750
	0,109375	-0,953125	0,343750
	0,125000	-0,984375	0,343750
	0,125000	-0,984375	0,328125
	0,109375	-0,984375	0,343750
	0,109375	-0,968750	0,359375
	0,093750	-0,968750	0,328125
	0,093750	-0,984375	0,328125
	0,109375	-0,968750	0,328125
	0,109375	-1,000000	0,359375
	0,093750	-0,968750	0,328125
	0,125000	-0,968750	0,296875
	0,109375	-1,000000	0,343750
	0,093750	-0,937500	0,328125
	0,109375	-0,968750	0,312500
	0,140625	-0,953125	0,359375
	0,109375	-0,984375	0,328125
	0,109375	-1,000000	0,343750
	0,125000	-0,953125	0,343750
	0,140625	-0,968750	0,312500
	0,093750	-0,937500	0,328125
	0,093750	-0,984375	0,328125
	0,109375	-0,984375	0,359375
	0,125000	-0,968750	0,343750
	0,125000	-0,984375	0,343750
	0,125000	-0,937500	0,375000
	0,125000	-0,984375	0,343750
	0,093750	-0,968750	0,359375
	0,109375	-1,000000	0,343750
	0,109375	-0,984375	0,328125
	0,093750	-0,937500	0,312500
	0,109375	-0,984375	0,328125
	0,109375	-0,984375	0,312500
	0,109375	-1,000000	0,328125
	0,109375	-0,968750	0,343750
	0,109375	-0,953125	0,343750
	0,109375	-0,968750	0,296875
	0,109375	-0,968750	0,328125
	0,109375	-0,984375	0,343750
	0,125000	-0,984375	0,312500
	0,093750	-0,984375	0,328125
	0,125000	-0,937500	0,359375
	0,109375	-0,968750	0,328125
	0,093750	-0,984375	0,328125
	0,109375	-0,984375	0,343750
	0,156250	-0,968750	0,390625
	0,109375	-1,000000	0,343750
	0,109375	-0,968750	0,343750
	0,125000	-1,000000	0,343750
	0,093750	-0,968750	0,343750
	0,125000	-0,968750	0,359375
	0,109375	-0,953125	0,343750
	0,078125	-0,953125	0,328125
	0,109375	-0,984375	0,312500
	0,109375	-0,953125	0,328125
	0,125000	-0,953125	0,343750
	0,109375	-0,984375	0,328125
	0,109375	-0,968750	0,328125
	0,125000	-0,953125	0,359375
	0,125000	-0,968750	0,312500
	0,109375	-0,953125	0,343750
	0,109375	-1,000000	0,328125
	0,093750	-0,968750	0,343750
	0,109375	-0,984375	0,343750
	0,109375	-0,937500	0,312500
	0,156250	-0,953125	0,328125
	0,109375	-0,968750	0,312500
	0,062500	-0,984375	0,343750
	0,109375	-0,984375	0,328125
	0,125000	-0,984375	0,312500
	0,109375	-0,968750	0,343750
	0,109375	-0,953125	0,328125
	0,093750	-0,968750	0,328125
	0,093750	-1,000000	0,343750
	0,093750	-0,984375	0,343750
	0,125000	-0,937500	0,359375
	0,109375	-1,000000	0,328125
	0,078125	-0,968750	0,312500
	0,140625	-0,968750	0,375000
	0,109375	-0,953125	0,343750
	0,125000	-1,000000	0,343750
	0,109375	-0,984375	0,328125
	0,109375	-0,968750	0,328125
	0,109375	-0,984375	0,328125
	0,093750	-0,968750	0,312500
	0,109375	-0,953125	0,343750
	0,125000	-1,000000	0,312500
	0,109375	-0,984375	0,328125
	0,093750	-1,000000	0,343750
	0,109375	-0,953125	0,343750
	0,156250	-0,953125	0,359375
	0,140625	-0,968750	0,312500
	0,125000	-1,000000	0,328125
	0,109375	-0,968750	0,343750
	0,093750	-0,968750	0,343750
	0,109375	-0,937500	0,359375
	0,125000	-0,953125	0,312500
	0,125000	-0,953125	0,343750
	0,093750	-1,000000	0,343750
	0,125000	-0,953125	0,343750
	0,109375	-0,968750	0,312500
	0,125000	-0,953125	0,343750
	0,109375	-0,984375	0,328125
	0,125000	-0,968750	0,328125
	0,109375	-0,968750	0,312500
	0,125000	-0,953125	0,328125
	0,109375	-0,968750	0,343750
	0,093750	-0,968750	0,328125
	0,125000	-0,984375	0,359375
	0,093750	-0,984375	0,343750
	0,093750	-0,984375	0,328125
	0,125000	-0,984375	0,328125
	0,125000	-0,968750	0,343750
	0,109375	-0,968750	0,328125
	0,109375	-0,968750	0,328125
	0,140625	-0,937500	0,343750
	0,109375	-0,968750	0,328125
	0,125000	-0,968750	0,328125
	0,125000	-0,968750	0,328125
	0,093750	-0,968750	0,328125
	0,109375	-0,984375	0,328125
	0,125000	-0,968750	0,328125
	0,093750	-0,968750	0,296875
	0,093750	-0,984375	0,328125
	0,125000	-1,000000	0,343750
	0,109375	-0,968750	0,359375
	0,125000	-0,968750	0,328125
	0,109375	-0,968750	0,343750
	0,109375	-1,000000	0,328125
	0,109375	-1,000000	0,328125
	0,078125	-0,968750	0,312500
	0,125000	-1,000000	0,312500
	0,125000	-0,953125	0,312500
	0,109375	-0,968750	0,328125
	0,125000	-0,968750	0,343750
	0,125000	-0,968750	0,328125
	0,125000	-0,968750	0,359375
	0,140625	-0,968750	0,328125
	0,109375	-0,984375	0,343750
	0,125000	-1,000000	0,328125
	0,125000	-0,984375	0,343750
	0,109375	-0,984375	0,312500
	0,125000	-0,984375	0,343750
	0,125000	-0,968750	0,359375
	0,093750	-0,984375	0,312500
	0,156250	-0,937500	0,375000
	0,140625	-0,984375	0,328125
	0,093750	-0,953125	0,312500
	0,109375	-0,968750	0,343750
	0,109375	-0,968750	0,328125
	0,093750	-0,968750	0,328125
	0,125000	-0,968750	0,312500
	0,109375	-0,984375	0,328125
	0,109375	-0,984375	0,343750
	0,109375	-0,953125	0,328125
	0,125000	-0,890625	0,343750
	0,109375	-0,953125	0,359375
	0,093750	-1,000000	0,328125
	0,093750	-0,984375	0,312500
	0,093750	-0,984375	0,328125
	0,125000	-0,953125	0,296875
	0,093750	-0,968750	0,343750
	0,109375	-0,984375	0,328125
	0,093750	-0,968750	0,328125
	0,109375	-0,984375	0,328125
	0,156250	-0,953125	0,359375
	0,093750	-0,984375	0,359375
	0,093750	-0,984375	0,343750
	0,093750	-1,000000	0,359375
	0,093750	-0,968750	0,328125
	0,125000	-0,968750	0,343750
	0,093750	-0,968750	0,312500
	0,109375	-0,984375	0,343750
	0,109375	-0,968750	0,328125
	0,125000	-0,968750	0,343750
	0,156250	-0,953125	0,343750
	0,093750	-0,984375	0,343750
	0,093750	-0,984375	0,343750
	0,140625	-0,968750	0,328125
	0,093750	-0,953125	0,343750
	0,093750	-0,953125	0,312500
	0,109375	-0,968750	0,328125
	0,109375	-0,968750	0,328125
	0,109375	-0,984375	0,296875
	0,093750	-0,984375	0,328125
	0,093750	-0,968750	0,312500
	0,109375	-0,968750	0,328125
	0,125000	-1,000000	0,343750
	0,046875	-1,000000	0,296875
	0,109375	-0,984375	0,343750
	0,187500	-0,953125	0,375000
	0,125000	-0,968750	0,343750
	0,109375	-0,984375	0,328125
	0,093750	-0,968750	0,343750
	0,093750	-0,968750	0,328125
	0,125000	-0,953125	0,375000
	0,125000	-1,000000	0,328125
	0,109375	-1,000000	0,359375
	0,093750	-0,984375	0,343750
	0,109375	-0,984375	0,312500
	0,125000	-0,968750	0,343750
	0,109375	-0,984375	0,359375
	0,093750	-0,968750	0,328125
	0,109375	-0,968750	0,312500
	0,109375	-0,984375	0,343750
	0,093750	-0,953125	0,375000
	0,109375	-0,968750	0,359375
	0,078125	-0,984375	0,328125
	0,093750	-0,968750	0,343750
	0,109375	-0,984375	0,328125
	0,109375	-0,984375	0,328125
	0,125000	-0,968750	0,328125
	0,109375	-0,968750	0,328125
	0,109375	-1,000000	0,359375
	0,109375	-0,984375	0,343750
	0,171875	-0,937500	0,359375
	0,093750	-0,984375	0,328125
	0,125000	-0,984375	0,328125
	0,156250	-0,984375	0,343750
	0,109375	-0,968750	0,343750
	0,125000	-0,953125	0,343750
	0,093750	-0,984375	0,343750
	0,109375	-0,953125	0,343750
	0,093750	-0,984375	0,328125
	0,093750	-0,953125	0,312500
	0,156250	-0,953125	0,359375
	0,109375	-0,953125	0,312500
	0,078125	-0,968750	0,328125
	0,093750	-0,968750	0,312500
	0,109375	-0,984375	0,343750
	0,140625	-0,968750	0,359375
	0,093750	-1,000000	0,343750
	0,093750	-0,984375	0,343750
	0,109375	-1,000000	0,343750
	0,109375	-0,968750	0,359375
	0,125000	-0,953125	0,328125
	0,109375	-0,984375	0,343750
	0,109375	-0,968750	0,328125
	0,125000	-0,968750	0,328125
	0,093750	-0,968750	0,343750
	0,125000	-0,968750	0,343750
	0,109375	-0,953125	0,328125
	0,125000	-0,968750	0,296875
	0,093750	-0,968750	0,312500
	0,125000	-0,968750	0,328125
	0,156250	-0,906250	0,359375
	0,093750	-0,968750	0,328125
	0,109375	-0,968750	0,343750
	0,109375	-0,984375	0,343750
	0,125000	-0,984375	0,328125
	0,125000	-0,968750	0,359375
	0,109375	-0,953125	0,343750
	0,125000	-0,984375	0,328125
	0,125000	-0,968750	0,328125
	0,109375	-0,984375	0,328125
	0,125000	-0,984375	0,343750
	0,109375	-0,968750	0,328125
	0,125000	-0,984375	0,328125
	0,125000	-0,984375	0,390625
	0,078125	-0,984375	0,343750
	0,140625	-0,968750	0,312500
	0,109375	-0,984375	0,359375
	0,093750	-0,984375	0,359375
	0,125000	-0,984375	0,343750
	0,093750	-0,984375	0,343750
	0,109375	-0,968750	0,328125
	0,109375	-0,984375	0,328125
	0,109375	-0,968750	0,343750
	0,093750	-0,984375	0,328125
	0,125000	-0,968750	0,312500
	0,125000	-0,984375	0,343750
	0,109375	-0,968750	0,359375
	0,140625	-0,968750	0,343750
	0,109375	-0,953125	0,296875
	0,109375	-0,968750	0,343750
	0,187500	-0,953125	0,312500
	0,093750	-0,984375	0,312500
	0,109375	-0,984375	0,343750
	0,078125	-1,015625	0,312500
	0,109375	-0,968750	0,359375
	0,125000	-0,968750	0,343750
	0,109375	-0,968750	0,328125
	0,109375	-0,984375	0,328125
	0,125000	-1,000000	0,359375
	0,109375	-0,968750	0,343750
	0,109375	-0,968750	0,328125
	0,109375	-0,968750	0,343750
	0,093750	-0,953125	0,359375
	0,093750	-0,968750	0,343750
	0,078125	-0,968750	0,343750
	0,109375	-0,968750	0,328125
	0,093750	-0,984375	0,343750
	0,093750	-0,968750	0,312500
	0,140625	-0,984375	0,328125
	0,125000	-0,968750	0,343750
	0,125000	-0,953125	0,375000
	0,109375	-0,968750	0,359375
	0,140625	-0,984375	0,359375
	0,109375	-1,000000	0,312500
	0,125000	-0,968750	0,343750
	0,125000	-0,984375	0,328125
	0,125000	-0,953125	0,343750
	0,109375	-0,968750	0,343750
	0,109375	-0,984375	0,312500
	0,109375	-0,984375	0,343750
	0,156250	-0,937500	0,375000
	0,140625	-0,968750	0,343750
	0,109375	-0,984375	0,343750
	0,125000	-1,000000	0,328125
	0,125000	-0,968750	0,328125
	0,109375	-0,984375	0,328125
	0,109375	-0,968750	0,343750
	0,125000	-0,968750	0,328125
	0,109375	-0,968750	0,328125
	0,125000	-0,984375	0,328125
	0,109375	-1,000000	0,359375
	0,125000	-0,984375	0,328125
	0,109375	-0,968750	0,343750
	0,109375	-0,984375	0,328125
	0,093750	-0,984375	0,359375
	0,109375	-0,968750	0,343750
	0,109375	-0,968750	0,312500
	0,109375	-0,984375	0,343750
	0,093750	-0,953125	0,343750
	0,093750	-0,968750	0,359375
	0,171875	-0,953125	0,343750
	0,109375	-1,000000	0,343750
	0,109375	-0,968750	0,375000
	0,078125	-0,984375	0,343750
	0,109375	-0,984375	0,343750
	0,093750	-0,968750	0,343750
	0,125000	-1,000000	0,312500
	0,109375	-1,000000	0,328125
	0,109375	-0,984375	0,343750
	0,093750	-1,000000	0,343750
	0,125000	-0,953125	0,343750
	0,093750	-0,968750	0,359375
	0,109375	-1,000000	0,328125
	0,109375	-0,968750	0,343750
	0,109375	-1,000000	0,312500
	0,125000	-0,984375	0,328125
	0,109375	-0,953125	0,328125
	0,109375	-0,984375	0,359375
	0,125000	-0,984375	0,343750
	0,093750	-0,984375	0,312500
	0,140625	-0,937500	0,359375
	0,109375	-0,984375	0,343750
	0,125000	-1,000000	0,343750
	0,109375	-0,984375	0,328125
	0,109375	-0,984375	0,359375
	0,125000	-0,984375	0,328125
	0,093750	-0,984375	0,375000
	0,093750	-0,953125	0,343750
	0,109375	-0,968750	0,359375
	0,125000	-0,984375	0,343750
	0,140625	-0,953125	0,390625
	0,109375	-1,000000	0,312500
	0,125000	-0,984375	0,328125
	0,125000	-0,968750	0,328125
	0,125000	-0,984375	0,359375
	0,140625	-0,953125	0,328125
	0,125000	-1,000000	0,343750
	0,109375	-0,984375	0,312500
	0,125000	-0,984375	0,328125
	0,140625	-0,968750	0,328125
	0,109375	-0,984375	0,328125
	0,125000	-0,953125	0,359375
	0,093750	-0,953125	0,343750
	0,125000	-1,000000	0,312500
	0,125000	-0,968750	0,343750
	0,109375	-0,968750	0,343750
	0,093750	-0,968750	0,328125
	0,109375	-0,968750	0,328125
	0,093750	-0,937500	0,343750
	0,093750	-0,968750	0,343750
	0,140625	-0,953125	0,390625
	0,109375	-0,968750	0,359375
	0,109375	-0,984375	0,343750
	0,125000	-0,953125	0,328125
	0,125000	-0,953125	0,343750
	0,109375	-0,984375	0,328125
	0,109375	-0,968750	0,359375
	0,125000	-0,953125	0,343750
	0,125000	-0,984375	0,328125
	0,093750	-0,968750	0,343750
	0,140625	-0,968750	0,343750
	0,156250	-0,984375	0,343750
	0,109375	-0,953125	0,343750
	0,078125	-0,968750	0,343750
	0,093750	-1,000000	0,343750
	0,109375	-0,968750	0,375000
	0,109375	-0,984375	0,312500
	0,109375	-0,937500	0,343750
	0,093750	-0,984375	0,328125
	0,125000	-0,984375	0,328125
	0,140625	-0,921875	0,390625
	0,140625	-0,968750	0,328125
	0,140625	-0,968750	0,328125
	0,140625	-0,984375	0,359375
	0,109375	-0,984375	0,359375
	0,125000	-0,984375	0,359375
	0,109375	-0,968750	0,343750
	0,109375	-0,968750	0,359375
	0,093750	-0,968750	0,343750
	0,109375	-0,953125	0,359375
	0,140625	-0,937500	0,390625
	0,125000	-0,968750	0,328125
	0,109375	-0,968750	0,328125
	0,140625	-0,984375	0,343750
	0,109375	-0,953125	0,328125
	0,125000	-0,984375	0,359375
	0,125000	-1,000000	0,359375
	0,109375	-0,984375	0,312500
	0,125000	-1,000000	0,343750
	0,125000	-0,984375	0,328125
	0,109375	-0,937500	0,359375
	0,093750	-0,984375	0,343750
	0,093750	-0,984375	0,343750
	0,109375	-0,984375	0,328125
	0,078125	-0,953125	0,328125
	0,125000	-0,968750	0,328125
	0,125000	-0,984375	0,312500
	0,109375	-0,968750	0,343750
	0,109375	-0,968750	0,359375
	0,109375	-0,984375	0,328125
	0,140625	-0,953125	0,406250
	0,109375	-0,968750	0,343750
	0,109375	-0,968750	0,359375
	0,093750	-0,984375	0,343750
	0,093750	-0,968750	0,328125
	0,109375	-0,968750	0,328125
	0,109375	-0,968750	0,343750
	0,125000	-0,953125	0,359375
	0,109375	-0,968750	0,343750
	0,093750	-0,968750	0,328125
	0,140625	-0,968750	0,359375
	0,125000	-0,984375	0,343750
	0,125000	-0,984375	0,312500
	0,125000	-0,953125	0,328125
	0,125000	-0,984375	0,296875
	0,109375	-0,984375	0,343750
	0,093750	-0,968750	0,343750
	0,125000	-0,984375	0,343750
	0,125000	-0,984375	0,343750
	0,109375	-0,937500	0,328125
	0,093750	-0,984375	0,343750
	0,109375	-0,968750	0,312500
	0,093750	-0,968750	0,359375
	0,125000	-0,968750	0,328125
	0,125000	-0,953125	0,343750
	0,109375	-0,953125	0,328125
	0,109375	-0,968750	0,359375
	0,109375	-0,968750	0,328125
	0,109375	-0,984375	0,328125
	0,125000	-0,968750	0,328125
	0,140625	-0,937500	0,375000
	0,125000	-0,968750	0,343750
	0,140625	-0,968750	0,296875
	0,140625	-0,953125	0,390625
	0,109375	-0,953125	0,328125
	0,093750	-0,984375	0,328125
	0,125000	-0,953125	0,296875
	0,125000	-0,968750	0,312500
	0,140625	-0,968750	0,328125
	0,109375	-0,953125	0,312500
	0,109375	-0,953125	0,312500
	0,109375	-0,953125	0,328125
	0,125000	-0,968750	0,312500
	0,109375	-0,968750	0,343750
	0,078125	-0,984375	0,312500
	0,125000	-0,921875	0,359375
	0,093750	-0,968750	0,343750
	0,109375	-0,984375	0,375000
	0,109375	-0,968750	0,328125
	0,125000	-0,968750	0,328125
	0,125000	-0,968750	0,390625
	0,125000	-0,984375	0,312500
	0,093750	-1,015625	0,328125
	0,093750	-1,015625	0,343750
	0,109375	-0,984375	0,328125
	0,125000	-0,968750	0,328125
	0,093750	-0,968750	0,328125
	0,109375	-0,984375	0,328125
	0,125000	-0,968750	0,343750
	0,109375	-0,968750	0,343750
	0,140625	-0,953125	0,343750
	0,140625	-0,968750	0,359375
	0,109375	-0,968750	0,343750
	0,125000	-0,984375	0,343750
	0,109375	-0,968750	0,312500
	0,125000	-0,953125	0,359375
	0,125000	-0,968750	0,359375
	0,078125	-0,968750	0,328125
	0,125000	-0,953125	0,343750
	0,125000	-0,984375	0,359375
	0,109375	-1,000000	0,328125
	0,125000	-0,953125	0,343750
	0,125000	-0,968750	0,328125
	0,093750	-0,984375	0,328125
	0,078125	-0,937500	0,312500
	0,109375	-0,984375	0,343750
	0,125000	-0,968750	0,328125
	0,109375	-0,953125	0,328125
	0,109375	-0,953125	0,343750
	0,109375	-0,968750	0,328125
	0,125000	-0,937500	0,343750
	0,093750	-1,000000	0,328125
	0,109375	-0,953125	0,312500
	0,125000	-0,937500	0,328125
	0,125000	-0,968750	0,328125
	0,125000	-0,968750	0,328125
	0,109375	-0,984375	0,343750
	0,109375	-1,000000	0,359375
	0,109375	-0,984375	0,343750
	0,109375	-0,968750	0,359375
	0,125000	-0,937500	0,359375
	0,125000	-0,968750	0,375000
	0,109375	-0,984375	0,343750
	0,125000	-0,953125	0,328125
	0,125000	-0,984375	0,328125
	0,125000	-0,968750	0,328125
	0,125000	-0,984375	0,312500
	0,109375	-0,984375	0,343750
	0,093750	-0,953125	0,328125
	0,125000	-0,984375	0,312500
	0,140625	-0,953125	0,343750
	0,109375	-0,984375	0,328125
	0,125000	-0,968750	0,359375
	0,140625	-0,953125	0,359375
	0,125000	-0,953125	0,343750
	0,109375	-0,984375	0,328125
	0,125000	-0,968750	0,359375
	0,109375	-0,968750	0,328125
	0,093750	-0,953125	0,328125
	0,109375	-0,968750	0,328125
	0,140625	-0,937500	0,375000
	0,125000	-0,968750	0,312500
	0,093750	-0,968750	0,312500
	0,109375	-1,000000	0,328125
	0,125000	-0,968750	0,328125
	0,140625	-0,984375	0,328125
	0,109375	-0,953125	0,312500
	0,109375	-0,984375	0,359375
	0,125000	-0,968750	0,312500
	0,109375	-0,984375	0,343750
	0,125000	-0,968750	0,312500
	0,109375	-0,968750	0,312500
	0,109375	-1,015625	0,312500
	0,125000	-0,984375	0,328125
	0,093750	-0,984375	0,343750
	0,109375	-0,984375	0,328125
	0,093750	-0,953125	0,343750
	0,093750	-0,968750	0,312500
	0,109375	-0,968750	0,328125
	0,125000	-0,968750	0,343750
	0,140625	-0,937500	0,375000
	0,109375	-0,984375	0,328125
	0,109375	-0,984375	0,312500
	0,109375	-0,937500	0,328125
	0,109375	-0,984375	0,343750
	0,109375	-0,984375	0,328125
	0,109375	-1,000000	0,343750
	0,093750	-0,984375	0,343750
	0,109375	-1,000000	0,328125
	0,125000	-0,968750	0,312500
	0,109375	-0,937500	0,359375
	0,109375	-0,984375	0,343750
	0,109375	-0,968750	0,328125
	0,109375	-0,984375	0,312500
	0,125000	-1,000000	0,343750
	0,125000	-1,000000	0,328125
	0,125000	-0,984375	0,343750
	0,109375	-0,984375	0,343750
	0,109375	-0,968750	0,328125
	0,109375	-0,968750	0,328125
	0,140625	-0,937500	0,343750
	0,093750	-0,968750	0,312500
	0,109375	-0,968750	0,312500
	0,109375	-1,000000	0,343750
	0,109375	-0,984375	0,312500
	0,109375	-0,984375	0,328125
	0,109375	-0,968750	0,328125
	0,093750	-0,984375	0,343750
	0,109375	-0,953125	0,343750
	0,109375	-1,000000	0,343750
	0,156250	-0,968750	0,328125
	0,109375	-0,968750	0,343750
	0,078125	-0,968750	0,328125
	0,093750	-0,984375	0,328125
	0,078125	-0,968750	0,312500
	0,125000	-0,953125	0,359375
	0,125000	-0,953125	0,343750
	0,109375	-1,000000	0,328125
	0,140625	-0,968750	0,328125
	0,125000	-0,953125	0,359375
	0,109375	-0,968750	0,359375
	0,093750	-0,968750	0,328125
	0,109375	-0,953125	0,296875
	0,093750	-0,953125	0,375000
	0,109375	-0,953125	0,328125
	0,109375	-0,984375	0,343750
	0,125000	-0,984375	0,328125
	0,093750	-1,000000	0,328125
	0,125000	-0,984375	0,328125
	0,125000	-0,968750	0,296875
	0,156250	-0,968750	0,359375
	0,140625	-0,953125	0,312500
	0,125000	-0,984375	0,328125
	0,125000	-0,984375	0,296875
	0,109375	-0,968750	0,312500
	0,093750	-0,968750	0,312500
	0,093750	-0,984375	0,343750
	0,109375	-1,015625	0,328125
	0,078125	-0,968750	0,312500
	0,093750	-0,984375	0,359375
	0,156250	-0,984375	0,390625
	0,140625	-0,984375	0,328125
	0,109375	-0,984375	0,312500
	0,140625	-0,968750	0,312500
	0,078125	-0,984375	0,312500
	0,109375	-0,984375	0,328125
	0,093750	-0,968750	0,328125
	0,125000	-0,984375	0,343750
	0,109375	-0,953125	0,359375
	0,093750	-0,953125	0,312500
	0,125000	-0,984375	0,328125
	0,125000	-0,984375	0,312500
	0,125000	-1,000000	0,312500
	0,125000	-0,984375	0,312500
	0,093750	-0,984375	0,359375
	0,109375	-0,968750	0,328125
	0,125000	-0,968750	0,312500
	0,109375	-0,984375	0,328125
	0,109375	-0,968750	0,328125
	0,109375	-0,968750	0,312500
	0,140625	-0,937500	0,328125
	0,109375	-0,984375	0,312500
	0,109375	-0,968750	0,312500
	0,093750	-1,000000	0,296875
	0,093750	-0,953125	0,312500
	0,125000	-0,953125	0,328125
	0,125000	-0,984375	0,359375
	0,109375	-0,968750	0,328125
	0,109375	-0,968750	0,343750
	0,109375	-0,984375	0,328125
	0,140625	-0,953125	0,312500
	0,109375	-0,953125	0,343750
	0,125000	-0,937500	0,328125
	0,109375	-0,984375	0,312500
	0,109375	-0,953125	0,343750
	0,109375	-0,968750	0,312500
	0,140625	-0,984375	0,328125
	0,125000	-0,968750	0,328125
	0,125000	-0,968750	0,343750
	0,093750	-0,968750	0,312500
	0,140625	-0,937500	0,343750
	0,125000	-0,984375	0,328125
	0,093750	-0,968750	0,343750
	0,140625	-0,968750	0,328125
	0,093750	-0,968750	0,328125
	0,125000	-0,984375	0,328125
	0,109375	-1,000000	0,328125
	0,125000	-0,968750	0,343750
	0,109375	-0,968750	0,328125
	0,125000	-0,984375	0,296875
	0,156250	-0,937500	0,359375
	0,125000	-0,984375	0,343750
	0,109375	-0,968750	0,328125
	0,093750	-0,968750	0,328125
	0,125000	-0,984375	0,343750
	0,093750	-0,968750	0,359375
	0,109375	-0,968750	0,359375
	0,109375	-0,968750	0,312500
	0,109375	-0,953125	0,343750
	0,109375	-0,953125	0,343750
	0,125000	-0,968750	0,328125
	0,109375	-0,984375	0,312500
	0,125000	-0,984375	0,312500
	0,093750	-0,968750	0,328125
	0,109375	-1,015625	0,343750
	0,093750	-0,984375	0,359375
	0,109375	-0,968750	0,328125
	0,109375	-0,968750	0,343750
	0,125000	-1,000000	0,343750
	0,109375	-0,968750	0,359375
	0,156250	-0,953125	0,343750
	0,078125	-0,953125	0,328125
	0,109375	-0,953125	0,343750
	0,109375	-0,968750	0,343750
	0,125000	-0,984375	0,343750
	0,125000	-0,937500	0,359375
	0,125000	-0,937500	0,359375
	0,125000	-1,000000	0,343750
	0,125000	-0,968750	0,328125
	0,125000	-1,000000	0,359375
	0,125000	-0,968750	0,359375
	0,109375	-0,937500	0,343750
	0,093750	-1,000000	0,328125
	0,125000	-0,984375	0,328125
	0,125000	-0,984375	0,296875
	0,140625	-0,984375	0,343750
	0,125000	-0,984375	0,312500
	0,093750	-0,984375	0,328125
	0,109375	-0,968750	0,312500
	0,109375	-0,968750	0,343750
	0,140625	-0,937500	0,375000
	0,109375	-0,984375	0,359375
	0,109375	-1,000000	0,343750
	0,140625	-0,968750	0,343750
	0,109375	-0,984375	0,343750
	0,109375	-0,984375	0,343750
	0,093750	-0,984375	0,343750
	0,093750	-0,968750	0,343750
	0,109375	-0,968750	0,343750
	0,093750	-0,968750	0,343750
	0,125000	-0,937500	0,359375
	0,109375	-1,015625	0,328125
	0,140625	-0,984375	0,343750
	0,109375	-0,968750	0,328125
	0,109375	-0,968750	0,343750
	0,109375	-0,968750	0,328125
	0,093750	-0,984375	0,359375
	0,125000	-1,000000	0,359375
	0,109375	-0,984375	0,359375
	0,109375	-0,968750	0,375000
	0,125000	-0,937500	0,328125
	0,093750	-0,953125	0,359375
	0,125000	-0,984375	0,343750
	0,125000	-0,953125	0,375000
	0,125000	-0,984375	0,312500
	0,093750	-0,968750	0,359375
	0,093750	-0,968750	0,343750
	0,093750	-0,984375	0,328125
	0,109375	-0,968750	0,343750
	0,109375	-0,968750	0,328125
	0,140625	-0,953125	0,343750
	0,125000	-0,984375	0,359375
	0,125000	-0,984375	0,328125
	0,093750	-0,984375	0,328125
	0,093750	-0,968750	0,328125
