	0,109375	-1,031250	0,109375
	0,140625	-1,015625	0,078125
	0,109375	-0,984375	0,093750
	0,125000	-1,062500	0,093750
	0,109375	-1,015625	0,062500
	0,109375	-1,015625	0,093750
	0,109375	-1,046875	0,078125
	0,125000	-1,031250	0,109375
	0,125000	-1,031250	0,109375
	0,093750	-1,031250	0,093750
	0,125000	-1,031250	0,078125
	0,156250	-1,000000	0,109375
	0,125000	-1,031250	0,093750
	0,125000	-1,031250	0,093750
	0,140625	-1,031250	0,125000
	0,125000	-1,031250	0,078125
	0,140625	-1,031250	0,109375
	0,109375	-1,031250	0,093750
	0,140625	-1,031250	0,109375
	0,125000	-1,031250	0,109375
	0,125000	-1,015625	0,093750
	0,140625	-0,984375	0,140625
	0,125000	-1,015625	0,093750
	0,125000	-1,031250	0,093750
	0,125000	-1,031250	0,078125
	0,125000	-1,046875	0,109375
	0,109375	-1,031250	0,109375
	0,109375	-1,062500	0,078125
	0,093750	-1,046875	0,109375
	0,125000	-1,046875	0,093750
	0,125000	-1,031250	0,093750
	0,140625	-1,031250	0,093750
	0,140625	-1,062500	0,078125
	0,140625	-1,046875	0,093750
	0,109375	-1,015625	0,078125
	0,093750	-1,031250	0,093750
	0,125000	-1,031250	0,109375
	0,140625	-1,031250	0,093750
	0,125000	-1,015625	0,093750
	0,109375	-1,046875	0,093750
	0,140625	-1,062500	0,109375
	0,140625	-1,000000	0,140625
	0,125000	-1,046875	0,093750
	0,109375	-1,078125	0,093750
	0,109375	-1,031250	0,109375
	0,109375	-1,031250	0,109375
	0,125000	-1,031250	0,093750
	0,125000	-1,031250	0,125000
	0,109375	-1,015625	0,093750
	0,093750	-1,015625	0,078125
	0,109375	-1,046875	0,109375
	0,125000	-1,000000	0,156250
	0,125000	-1,046875	0,125000
	0,140625	-1,031250	0,093750
	0,093750	-1,078125	0,093750
	0,125000	-1,000000	0,078125
	0,109375	-1,046875	0,078125
	0,125000	-1,031250	0,109375
	0,125000	-1,031250	0,078125
	0,109375	-1,031250	0,093750
	0,140625	-1,031250	0,078125
	0,140625	-1,000000	0,109375
	0,140625	-1,000000	0,078125
	0,140625	-1,046875	0,062500
	0,125000	-1,046875	0,125000
	0,125000	-1,031250	0,093750
	0,140625	-1,046875	0,078125
	0,093750	-1,031250	0,093750
	0,125000	-1,015625	0,062500
	0,125000	-1,046875	0,078125
	0,125000	-1,046875	0,078125
	0,140625	-1,000000	0,125000
	0,109375	-1,031250	0,109375
	0,109375	-1,046875	0,109375
	0,156250	-1,031250	0,093750
	0,093750	-1,031250	0,109375
	0,140625	-1,015625	0,093750
	0,125000	-1,015625	0,109375
	0,125000	-1,031250	0,093750
	0,109375	-1,031250	0,109375
	0,125000	-1,015625	0,093750
	0,140625	-1,015625	0,109375
	0,125000	-1,046875	0,109375
	0,109375	-1,046875	0,109375
	0,078125	-1,031250	0,109375
	0,140625	-1,031250	0,109375
	0,093750	-1,031250	0,093750
	0,109375	-1,031250	0,078125
	0,109375	-1,046875	0,093750
	0,109375	-1,031250	0,093750
	0,109375	-1,015625	0,109375
	0,156250	-1,000000	0,109375
	0,140625	-1,062500	0,109375
	0,093750	-1,046875	0,078125
	0,125000	-1,046875	0,093750
	0,109375	-1,031250	0,093750
	0,171875	-0,968750	0,125000
	0,109375	-1,062500	0,109375
	0,125000	-1,015625	0,093750
	0,109375	-1,031250	0,109375
	0,125000	-1,046875	0,093750
	0,156250	-1,031250	0,125000
	0,125000	-1,015625	0,078125
	0,125000	-1,046875	0,109375
	0,125000	-1,031250	0,125000
	0,156250	-1,046875	0,093750
	0,125000	-1,031250	0,109375
	0,093750	-1,000000	0,109375
	0,125000	-1,062500	0,109375
	0,125000	-1,046875	0,093750
	0,140625	-1,046875	0,109375
	0,109375	-1,046875	0,093750
	0,109375	-1,031250	0,093750
	0,109375	-1,046875	0,078125
	0,125000	-1,046875	0,093750
	0,125000	-1,015625	0,140625
	0,140625	-1,031250	0,109375
	0,109375	-1,031250	0,109375
	0,140625	-1,031250	0,093750
	0,140625	-1,046875	0,078125
	0,125000	-1,046875	0,093750
	0,156250	-0,984375	0,093750
	0,140625	-1,031250	0,109375
	0,140625	-1,046875	0,109375
	0,109375	-1,062500	0,125000
	0,140625	-1,031250	0,078125
	0,140625	-1,031250	0,093750
	0,140625	-1,031250	0,125000
	0,125000	-1,015625	0,109375
	0,125000	-1,046875	0,109375
	0,125000	-1,015625	0,109375
	0,140625	-1,031250	0,125000
	0,125000	-1,031250	0,125000
	0,078125	-1,031250	0,093750
	0,093750	-1,078125	0,078125
	0,109375	-1,031250	0,109375
	0,125000	-1,031250	0,093750
	0,125000	-1,031250	0,078125
	0,125000	-1,031250	0,093750
	0,125000	-1,046875	0,125000
	0,140625	-1,031250	0,093750
	0,140625	-1,000000	0,140625
	0,125000	-1,031250	0,078125
	0,140625	-1,000000	0,093750
	0,140625	-1,031250	0,046875
	0,125000	-1,031250	0,109375
	0,109375	-1,046875	0,093750
	0,109375	-1,046875	0,125000
	0,125000	-1,062500	0,093750
	0,125000	-1,031250	0,125000
	0,125000	-1,031250	0,093750
	0,140625	-0,968750	0,125000
	0,125000	-1,046875	0,109375
	0,125000	-1,031250	0,093750
	0,140625	-1,015625	0,109375
	0,125000	-1,046875	0,093750
	0,109375	-1,015625	0,093750
	0,109375	-1,031250	0,093750
	0,109375	-1,031250	0,125000
	0,140625	-1,062500	0,078125
	0,125000	-1,015625	0,109375
	0,125000	-1,031250	0,125000
	0,109375	-1,031250	0,109375
	0,125000	-1,062500	0,109375
	0,156250	-1,000000	0,140625
	0,156250	-1,000000	0,125000
	0,125000	-1,046875	0,093750
	0,140625	-1,031250	0,093750
	0,140625	-1,031250	0,093750
	0,109375	-1,031250	0,109375
	0,125000	-1,046875	0,078125
	0,140625	-1,000000	0,140625
	0,109375	-1,031250	0,093750
	0,109375	-1,046875	0,078125
	0,125000	-1,046875	0,109375
	0,093750	-1,015625	0,109375
	0,109375	-1,015625	0,093750
	0,109375	-1,031250	0,109375
	0,109375	-1,046875	0,093750
	0,093750	-1,031250	0,109375
	0,125000	-1,015625	0,093750
	0,187500	-1,031250	0,140625
	0,187500	-0,953125	0,156250
	0,156250	-0,984375	0,093750
	0,109375	-1,031250	0,125000
	0,125000	-1,031250	0,109375
	0,078125	-1,109375	0,031250
	0,125000	-1,015625	0,093750
	0,125000	-1,015625	0,093750
	0,140625	-1,062500	0,109375
	0,093750	-1,031250	0,109375
	0,125000	-1,031250	0,078125
	0,109375	-1,062500	0,109375
	0,140625	-1,046875	0,109375
	0,156250	-1,031250	0,078125
	0,140625	-1,046875	0,093750
	0,218750	-1,000000	0,140625
	0,125000	-1,031250	0,093750
	0,109375	-0,984375	0,093750
	0,109375	-1,031250	0,109375
	0,093750	-1,046875	0,109375
	0,171875	-1,000000	0,125000
	0,140625	-1,031250	0,078125
	0,140625	-1,015625	0,078125
	0,109375	-1,046875	0,078125
	0,109375	-1,062500	0,078125
	0,109375	-1,062500	0,109375
	0,125000	-1,046875	0,093750
	0,125000	-1,046875	0,078125
	0,093750	-1,031250	0,093750
	0,093750	-1,031250	0,093750
	0,093750	-1,015625	0,093750
	0,156250	-1,031250	0,093750
	0,140625	-1,046875	0,093750
	0,109375	-1,031250	0,125000
	0,093750	-1,046875	0,093750
	0,125000	-1,015625	0,125000
	0,156250	-1,046875	0,109375
	0,125000	-1,046875	0,109375
	0,125000	-1,046875	0,093750
	0,109375	-1,031250	0,109375
	0,156250	-1,015625	0,171875
	0,109375	-1,031250	0,093750
	0,125000	-1,031250	0,109375
	0,125000	-1,031250	0,109375
	0,109375	-1,031250	0,140625
	0,156250	-1,031250	0,125000
	0,125000	-1,015625	0,109375
	0,093750	-1,031250	0,093750
	0,109375	-1,031250	0,093750
	0,109375	-1,046875	0,078125
	0,156250	-0,984375	0,140625
	0,140625	-1,015625	0,109375
	0,125000	-1,046875	0,109375
	0,109375	-1,046875	0,109375
	0,140625	-1,046875	0,140625
	0,109375	-1,031250	0,093750
	0,140625	-1,031250	0,125000
	0,140625	-1,015625	0,093750
	0,125000	-1,031250	0,093750
	0,109375	-1,000000	0,093750
	0,140625	-1,015625	0,109375
	0,109375	-1,015625	0,109375
	0,109375	-1,078125	0,093750
	0,093750	-1,109375	0,093750
	0,125000	-1,031250	0,109375
	0,140625	-1,031250	0,093750
	0,156250	-1,046875	0,093750
	0,125000	-1,015625	0,093750
	0,109375	-1,031250	0,109375
	0,109375	-1,000000	0,109375
	0,156250	-1,000000	0,156250
	0,125000	-1,046875	0,109375
	0,125000	-1,046875	0,109375
	0,125000	-1,031250	0,109375
	0,109375	-1,031250	0,093750
	0,125000	-1,046875	0,109375
	0,125000	-1,031250	0,093750
	0,140625	-1,046875	0,093750
	0,109375	-1,031250	0,093750
	0,078125	-1,015625	0,109375
	0,140625	-1,031250	0,125000
	0,109375	-1,031250	0,109375
	0,078125	-1,078125	0,046875
	0,125000	-1,031250	0,093750
	0,109375	-1,015625	0,109375
	0,125000	-1,046875	0,093750
	0,109375	-1,031250	0,109375
	0,140625	-1,031250	0,109375
	0,140625	-1,015625	0,093750
	0,125000	-1,046875	0,093750
	0,109375	-1,046875	0,078125
	0,140625	-1,046875	0,078125
	0,125000	-1,062500	0,093750
	0,156250	-1,046875	0,093750
	0,109375	-1,015625	0,078125
	0,109375	-1,031250	0,109375
	0,140625	-1,046875	0,125000
	0,109375	-1,015625	0,125000
	0,125000	-1,031250	0,093750
	0,140625	-1,031250	0,125000
	0,140625	-1,000000	0,109375
	0,140625	-1,031250	0,093750
	0,109375	-1,046875	0,093750
	0,125000	-1,046875	0,093750
	0,109375	-1,015625	0,078125
	0,140625	-1,015625	0,093750
	0,093750	-1,031250	0,109375
	0,125000	-1,046875	0,109375
	0,125000	-1,031250	0,109375
	0,140625	-1,046875	0,093750
	0,156250	-1,000000	0,109375
	0,125000	-1,031250	0,125000
	0,125000	-1,046875	0,093750
	0,109375	-1,031250	0,125000
	0,156250	-1,031250	0,093750
	0,125000	-1,046875	0,062500
	0,125000	-1,062500	0,109375
	0,125000	-1,062500	0,109375
	0,125000	-1,046875	0,078125
	0,109375	-1,031250	0,109375
	0,156250	-1,015625	0,109375
	0,125000	-1,015625	0,093750
	0,125000	-1,046875	0,093750
	0,109375	-1,031250	0,078125
	0,125000	-1,000000	0,109375
	0,125000	-1,046875	0,078125
	0,109375	-1,046875	0,109375
	0,140625	-1,031250	0,093750
	0,140625	-1,015625	0,093750
	0,125000	-1,046875	0,109375
	0,187500	-1,000000	0,140625
	0,125000	-1,015625	0,093750
	0,125000	-1,031250	0,109375
	0,125000	-1,031250	0,093750
	0,093750	-1,031250	0,078125
	0,125000	-1,015625	0,062500
	0,156250	-1,031250	0,093750
	0,109375	-1,031250	0,109375
	0,140625	-1,015625	0,109375
	0,109375	-1,031250	0,125000
	0,125000	-1,031250	0,109375
	0,125000	-1,031250	0,078125
	0,125000	-1,031250	0,093750
	0,125000	-1,031250	0,093750
	0,125000	-1,046875	0,109375
	0,140625	-1,031250	0,093750
	0,140625	-1,015625	0,093750
	0,109375	-1,031250	0,093750
	0,109375	-1,031250	0,078125
	0,125000	-1,031250	0,093750
	0,171875	-1,000000	0,062500
	0,125000	-1,046875	0,093750
	0,109375	-1,015625	0,093750
	0,125000	-1,031250	0,093750
	0,078125	-1,062500	0,078125
	0,140625	-1,062500	0,078125
	0,125000	-1,062500	0,109375
	0,125000	-1,031250	0,093750
	0,109375	-1,031250	0,078125
	0,125000	-1,031250	0,093750
	0,156250	-1,015625	0,125000
	0,125000	-1,015625	0,078125
	0,140625	-1,031250	0,109375
	0,109375	-1,015625	0,109375
	0,093750	-1,046875	0,093750
	0,140625	-1,046875	0,078125
	0,140625	-1,046875	0,109375
	0,125000	-1,031250	0,093750
	0,109375	-1,031250	0,109375
	0,125000	-1,031250	0,109375
	0,125000	-1,031250	0,093750
	0,125000	-1,046875	0,062500
	0,125000	-1,046875	0,078125
	0,109375	-1,046875	0,078125
	0,125000	-1,031250	0,062500
	0,125000	-1,046875	0,078125
	0,140625	-1,031250	0,078125
	0,140625	-1,031250	0,078125
	0,125000	-1,015625	0,093750
	0,140625	-1,015625	0,109375
	0,109375	-1,015625	0,140625
	0,125000	-1,046875	0,109375
	0,109375	-1,031250	0,109375
	0,109375	-1,031250	0,062500
	0,140625	-1,046875	0,093750
	0,125000	-1,015625	0,093750
	0,125000	-1,015625	0,093750
	0,125000	-1,031250	0,093750
	0,093750	-1,046875	0,078125
	0,125000	-1,031250	0,093750
	0,125000	-1,015625	0,125000
	0,125000	-1,000000	0,093750
	0,140625	-1,046875	0,093750
	0,125000	-1,031250	0,109375
	0,171875	-1,000000	0,125000
	0,078125	-1,062500	0,109375
	0,109375	-1,031250	0,093750
	0,140625	-1,031250	0,078125
	0,109375	-1,031250	0,093750
	0,140625	-1,062500	0,093750
	0,140625	-0,953125	0,125000
	0,125000	-1,015625	0,125000
	0,125000	-1,031250	0,109375
	0,140625	-1,046875	0,109375
	0,156250	-1,078125	0,109375
	0,125000	-1,062500	0,093750
	0,125000	-1,031250	0,093750
	0,109375	-1,046875	0,093750
	0,109375	-1,031250	0,078125
	0,109375	-1,031250	0,125000
	0,109375	-0,984375	0,125000
	0,140625	-1,046875	0,093750
	0,125000	-1,062500	0,062500
	0,125000	-1,015625	0,062500
	0,156250	-1,000000	0,062500
	0,125000	-0,968750	0,140625
	0,140625	-0,984375	0,125000
	0,125000	-1,031250	0,078125
	0,125000	-1,000000	0,093750
	0,125000	-1,031250	0,093750
	0,109375	-1,031250	0,093750
	0,140625	-1,046875	0,093750
	0,156250	-1,046875	0,109375
	0,140625	-1,046875	0,046875
	0,109375	-1,046875	0,093750
	0,109375	-1,062500	0,125000
	0,140625	-1,046875	0,078125
	0,109375	-1,031250	0,078125
	0,140625	-1,031250	0,093750
	0,140625	-1,046875	0,078125
	0,140625	-0,984375	0,125000
	0,093750	-1,015625	0,125000
	0,156250	-1,031250	0,109375
	0,125000	-1,031250	0,093750
	0,109375	-1,031250	0,093750
	0,125000	-1,031250	0,078125
	0,140625	-1,046875	0,109375
	0,140625	-1,031250	0,093750
	0,125000	-1,031250	0,109375
	0,093750	-1,015625	0,078125
	0,140625	-1,031250	0,125000
	0,125000	-1,031250	0,078125
	0,140625	-1,046875	0,078125
	0,093750	-1,062500	0,078125
	0,125000	-1,031250	0,078125
	0,125000	-1,031250	0,109375
	0,109375	-1,000000	0,109375
	0,109375	-1,031250	0,109375
	0,125000	-1,046875	0,093750
	0,125000	-1,062500	0,078125
	0,125000	-1,046875	0,093750
	0,125000	-1,031250	0,078125
	0,140625	-1,015625	0,109375
	0,125000	-1,031250	0,093750
	0,093750	-1,031250	0,109375
	0,109375	-1,046875	0,078125
	0,109375	-1,000000	0,093750
	0,125000	-1,031250	0,093750
	0,093750	-1,046875	0,109375
	0,125000	-1,031250	0,109375
	0,171875	-1,015625	0,125000
	0,109375	-1,031250	0,125000
	0,125000	-1,000000	0,078125
	0,109375	-1,031250	0,093750
	0,109375	-1,031250	0,078125
	0,125000	-1,015625	0,078125
	0,125000	-1,031250	0,093750
	0,125000	-1,015625	0,078125
	0,109375	-1,015625	0,078125
	0,109375	-1,000000	0,093750
	0,156250	-1,015625	0,109375
	0,140625	-1,031250	0,109375
	0,125000	-1,000000	0,093750
	0,109375	-1,046875	0,046875
	0,109375	-1,062500	0,093750
	0,109375	-1,046875	0,093750
	0,140625	-1,031250	0,078125
	0,125000	-1,031250	0,062500
	0,125000	-1,031250	0,093750
	0,125000	-1,015625	0,093750
	0,171875	-1,015625	0,125000
	0,156250	-1,015625	0,093750
	0,109375	-1,062500	0,062500
	0,109375	-1,046875	0,109375
	0,140625	-1,015625	0,078125
	0,125000	-1,062500	0,062500
	0,125000	-1,031250	0,078125
	0,140625	-1,015625	0,093750
	0,125000	-1,031250	0,078125
	0,140625	-1,046875	0,093750
	0,140625	-1,031250	0,125000
	0,125000	-1,046875	0,078125
	0,109375	-1,046875	0,078125
	0,109375	-1,031250	0,062500
	0,125000	-1,046875	0,078125
	0,109375	-1,046875	0,062500
	0,109375	-1,015625	0,109375
	0,109375	-1,015625	0,078125
	0,140625	-1,046875	0,078125
	0,125000	-1,046875	0,093750
	0,140625	-1,031250	0,125000
	0,125000	-1,046875	0,093750
	0,140625	-1,031250	0,078125
	0,140625	-1,015625	0,125000
	0,140625	-1,015625	0,093750
	0,125000	-1,015625	0,078125
	0,125000	-1,015625	0,078125
	0,109375	-1,046875	0,078125
	0,109375	-1,046875	0,093750
	0,109375	-1,031250	0,078125
	0,156250	-1,015625	0,093750
	0,125000	-1,031250	0,093750
	0,125000	-1,015625	0,078125
	0,125000	-1,031250	0,093750
	0,171875	-0,968750	0,093750
	0,156250	-0,984375	0,109375
	0,125000	-1,031250	0,093750
	0,109375	-1,046875	0,125000
	0,125000	-1,046875	0,062500
	0,109375	-1,062500	0,109375
	0,171875	-1,015625	0,109375
	0,109375	-1,000000	0,078125
	0,140625	-1,046875	0,109375
	0,109375	-1,015625	0,125000
	0,125000	-1,015625	0,093750
	0,109375	-1,046875	0,093750
	0,125000	-1,062500	0,078125
	0,125000	-1,046875	0,078125
	0,125000	-1,031250	0,093750
	0,140625	-1,062500	0,078125
	0,109375	-1,031250	0,078125
	0,109375	-1,015625	0,078125
	0,125000	-1,015625	0,093750
	0,109375	-1,078125	0,093750
	0,109375	-1,046875	0,078125
	0,125000	-1,015625	0,062500
	0,109375	-1,046875	0,093750
	0,125000	-1,031250	0,093750
	0,125000	-1,031250	0,093750
	0,125000	-1,046875	0,062500
	0,171875	-1,031250	0,125000
	0,125000	-1,031250	0,109375
	0,125000	-1,015625	0,140625
	0,109375	-1,015625	0,093750
	0,140625	-1,046875	0,125000
	0,109375	-1,046875	0,078125
	0,140625	-1,015625	0,078125
	0,140625	-1,031250	0,093750
	0,125000	-1,031250	0,078125
	0,125000	-1,031250	0,078125
	0,140625	-1,031250	0,109375
	0,125000	-1,000000	0,109375
	0,109375	-1,046875	0,109375
	0,156250	-1,015625	0,109375
	0,125000	-1,046875	0,093750
	0,093750	-1,015625	0,093750
	0,125000	-1,046875	0,093750
	0,125000	-1,031250	0,078125
	0,125000	-1,046875	0,078125
	0,125000	-1,031250	0,109375
	0,171875	-1,000000	0,125000
	0,140625	-1,031250	0,062500
	0,109375	-1,015625	0,093750
	0,109375	-1,078125	0,031250
	0,109375	-1,031250	0,093750
	0,125000	-1,031250	0,078125
	0,125000	-1,031250	0,093750
	0,109375	-1,046875	0,093750
	0,140625	-1,062500	0,093750
	0,125000	-1,031250	0,109375
	0,140625	-1,015625	0,125000
	0,125000	-1,046875	0,062500
	0,109375	-1,046875	0,093750
	0,125000	-1,015625	0,125000
	0,109375	-1,062500	0,093750
	0,140625	-1,046875	0,093750
	0,109375	-1,031250	0,125000
	0,140625	-1,046875	0,078125
	0,125000	-1,046875	0,109375
	0,109375	-1,015625	0,093750
	0,125000	-1,031250	0,078125
	0,125000	-1,015625	0,078125
	0,140625	-1,046875	0,109375
	0,109375	-1,031250	0,109375
	0,109375	-1,031250	0,093750
	0,125000	-1,031250	0,093750
	0,109375	-1,031250	0,125000
	0,125000	-1,015625	0,109375
	0,125000	-1,015625	0,093750
	0,125000	-1,046875	0,109375
	0,156250	-1,000000	0,125000
	0,109375	-1,046875	0,093750
	0,109375	-1,031250	0,078125
	0,109375	-1,031250	0,046875
	0,125000	-1,046875	0,093750
	0,140625	-1,031250	0,109375
	0,140625	-1,031250	0,125000
	0,125000	-1,015625	0,093750
	0,125000	-1,046875	0,078125
	0,125000	-1,062500	0,078125
	0,125000	-1,000000	0,109375
	0,109375	-1,015625	0,093750
	0,140625	-1,031250	0,078125
	0,125000	-1,031250	0,093750
	0,109375	-1,031250	0,109375
	0,109375	-1,062500	0,093750
	0,125000	-1,031250	0,062500
	0,125000	-1,031250	0,093750
	0,109375	-1,015625	0,093750
	0,140625	-1,031250	0,093750
	0,093750	-1,031250	0,125000
	0,125000	-1,015625	0,093750
	0,109375	-1,015625	0,093750
	0,140625	-1,046875	0,078125
	0,125000	-1,031250	0,125000
	0,187500	-1,000000	0,109375
	0,125000	-1,015625	0,078125
	0,125000	-1,046875	0,125000
	0,109375	-1,062500	0,109375
	0,125000	-1,015625	0,093750
	0,156250	-1,000000	0,109375
	0,109375	-1,046875	0,109375
	0,140625	-1,031250	0,093750
	0,109375	-1,062500	0,109375
	0,109375	-1,031250	0,093750
	0,125000	-1,015625	0,109375
	0,125000	-1,062500	0,109375
	0,125000	-1,015625	0,093750
	0,125000	-1,031250	0,093750
	0,125000	-1,031250	0,078125
	0,125000	-1,015625	0,125000
	0,125000	-1,046875	0,140625
	0,171875	-1,000000	0,140625
	0,125000	-1,031250	0,078125
	0,109375	-1,031250	0,093750
	0,125000	-1,031250	0,078125
	0,140625	-1,062500	0,093750
	0,109375	-1,031250	0,109375
	0,125000	-1,031250	0,109375
	0,125000	-1,031250	0,093750
	0,156250	-1,000000	0,125000
	0,125000	-1,015625	0,093750
	0,125000	-1,031250	0,093750
	0,109375	-1,046875	0,062500
	0,125000	-1,062500	0,109375
	0,109375	-1,031250	0,062500
	0,125000	-1,046875	0,093750
	0,125000	-1,062500	0,125000
	0,109375	-1,046875	0,078125
	0,140625	-1,031250	0,078125
	0,140625	-1,000000	0,125000
	0,125000	-1,031250	0,109375
	0,109375	-1,015625	0,078125
	0,109375	-1,031250	0,093750
	0,140625	-1,031250	0,093750
	0,125000	-1,046875	0,109375
	0,093750	-1,046875	0,109375
	0,109375	-1,031250	0,093750
	0,125000	-1,031250	0,109375
	0,125000	-1,046875	0,109375
	0,125000	-1,046875	0,093750
	0,109375	-1,031250	0,093750
	0,093750	-1,062500	0,078125
	0,171875	-1,015625	0,078125
	0,125000	-1,031250	0,078125
	0,125000	-1,031250	0,078125
	0,125000	-1,046875	0,093750
	0,125000	-1,046875	0,093750
	0,125000	-1,015625	0,109375
	0,125000	-1,031250	0,093750
	0,140625	-1,015625	0,140625
	0,125000	-1,062500	0,109375
	0,109375	-1,046875	0,078125
	0,125000	-1,015625	0,078125
	0,125000	-1,046875	0,109375
	0,109375	-1,031250	0,125000
	0,140625	-1,031250	0,093750
	0,109375	-1,031250	0,093750
	0,125000	-1,015625	0,093750
	0,125000	-1,000000	0,093750
	0,125000	-1,015625	0,140625
	0,125000	-1,046875	0,109375
	0,125000	-1,015625	0,093750
	0,093750	-1,078125	0,109375
	0,093750	-1,031250	0,093750
	0,140625	-1,031250	0,093750
	0,125000	-1,015625	0,062500
	0,109375	-1,062500	0,078125
	0,125000	-1,031250	0,062500
	0,093750	-1,000000	0,093750
	0,171875	-1,015625	0,140625
	0,156250	-1,046875	0,109375
	0,140625	-1,015625	0,093750
	0,109375	-1,062500	0,062500
	0,140625	-1,031250	0,109375
	0,140625	-1,031250	0,093750
	0,125000	-1,031250	0,093750
	0,125000	-1,031250	0,109375
	0,109375	-1,031250	0,109375
	0,109375	-1,015625	0,125000
	0,156250	-0,984375	0,125000
	0,125000	-1,062500	0,093750
	0,125000	-1,031250	0,109375
	0,109375	-1,046875	0,109375
	0,140625	-1,015625	0,093750
	0,109375	-1,046875	0,093750
	0,109375	-1,031250	0,062500
	0,109375	-1,046875	0,109375
	0,140625	-1,031250	0,062500
	0,125000	-1,031250	0,109375
	0,125000	-1,015625	0,109375
	0,125000	-1,031250	0,078125
	0,109375	-1,015625	0,093750
	0,140625	-1,046875	0,093750
	0,125000	-1,046875	0,093750
	0,125000	-1,031250	0,093750
	0,125000	-1,031250	0,109375
	0,125000	-1,015625	0,109375
	0,093750	-1,031250	0,093750
	0,125000	-1,031250	0,078125
	0,156250	-1,015625	0,109375
	0,125000	-1,031250	0,109375
	0,125000	-1,046875	0,093750
	0,125000	-1,031250	0,093750
	0,125000	-1,031250	0,093750
	0,125000	-1,046875	0,125000
	0,125000	-1,046875	0,093750
	0,125000	-1,046875	0,078125
	0,109375	-1,031250	0,109375
	0,109375	-1,015625	0,078125
	0,140625	-0,984375	0,140625
	0,125000	-1,015625	0,078125
	0,125000	-1,046875	0,109375
	0,140625	-1,031250	0,109375
	0,156250	-1,046875	0,093750
	0,125000	-1,046875	0,062500
	0,140625	-1,031250	0,093750
	0,140625	-1,062500	0,078125
	0,125000	-1,031250	0,093750
	0,125000	-1,062500	0,109375
	0,140625	-1,046875	0,109375
	0,109375	-1,015625	0,109375
	0,125000	-1,031250	0,125000
	0,140625	-1,015625	0,109375
	0,125000	-1,000000	0,093750
	0,109375	-1,031250	0,078125
	0,125000	-1,046875	0,093750
	0,140625	-1,046875	0,093750
	0,109375	-1,031250	0,109375
	0,125000	-1,031250	0,093750
	0,156250	-1,000000	0,140625
	0,109375	-1,046875	0,125000
	0,125000	-1,078125	0,078125
	0,125000	-1,031250	0,125000
	0,140625	-1,031250	0,078125
	0,125000	-1,031250	0,093750
	0,109375	-1,031250	0,109375
	0,125000	-1,031250	0,093750
	0,109375	-1,046875	0,093750
	0,125000	-1,031250	0,093750
	0,140625	-1,031250	0,140625
	0,140625	-1,015625	0,140625
	0,093750	-1,046875	0,140625
	0,125000	-1,031250	0,140625
	0,125000	-1,015625	0,062500
	0,109375	-1,031250	0,093750
	0,109375	-1,031250	0,109375
	0,140625	-1,046875	0,109375
	0,140625	-1,031250	0,109375
	0,156250	-1,031250	0,078125
	0,125000	-0,968750	0,109375
	0,156250	-1,046875	0,093750
	0,125000	-1,031250	0,078125
	0,125000	-1,000000	0,140625
	0,125000	-1,046875	0,062500
	0,125000	-1,000000	0,078125
	0,140625	-1,031250	0,109375
	0,125000	-1,015625	0,093750
	0,125000	-1,046875	0,093750
	0,093750	-1,046875	0,093750
	0,171875	-1,031250	0,109375
	0,109375	-1,015625	0,078125
	0,156250	-1,046875	0,093750
	0,078125	-1,062500	0,078125
	0,125000	-1,062500	0,093750
	0,125000	-1,046875	0,109375
	0,125000	-1,031250	0,109375
	0,093750	-1,015625	0,125000
	0,125000	-1,062500	0,109375
	0,156250	-1,078125	0,109375
	0,140625	-1,031250	0,109375
	0,109375	-1,015625	0,109375
	0,109375	-1,031250	0,109375
	0,093750	-1,046875	0,093750
	0,109375	-1,078125	0,078125
	0,109375	-1,031250	0,093750
	0,125000	-1,015625	0,093750
	0,125000	-1,031250	0,093750
	0,125000	-1,062500	0,109375
	0,140625	-1,046875	0,078125
	0,125000	-1,015625	0,140625
	0,125000	-1,046875	0,109375
	0,109375	-1,031250	0,093750
	0,109375	-1,031250	0,093750
	0,125000	-1,000000	0,109375
	0,156250	-1,046875	0,109375
	0,140625	-1,031250	0,093750
	0,125000	-1,015625	0,093750
	0,125000	-1,046875	0,109375
	0,140625	-1,046875	0,078125
	0,171875	-1,015625	0,078125
	0,125000	-1,015625	0,093750
	0,125000	-1,062500	0,093750
	0,109375	-1,046875	0,062500
	0,109375	-1,046875	0,109375
	0,109375	-1,031250	0,109375
	0,140625	-1,015625	0,109375
	0,125000	-1,031250	0,078125
	0,156250	-1,046875	0,109375
	0,156250	-1,046875	0,093750
	0,156250	-1,031250	0,062500
	0,140625	-1,031250	0,078125
	0,109375	-1,031250	0,062500
	0,125000	-1,031250	0,109375
	0,140625	-1,046875	0,125000
	0,125000	-1,031250	0,109375
	0,125000	-1,046875	0,109375
	0,109375	-1,031250	0,109375
	0,109375	-1,046875	0,062500
	0,109375	-1,031250	0,093750
	0,140625	-1,015625	0,140625
	0,109375	-1,031250	0,125000
	0,140625	-1,031250	0,093750
	0,156250	-1,015625	0,093750
	0,125000	-1,015625	0,109375
	0,125000	-1,015625	0,093750
	0,140625	-1,031250	0,093750
	0,125000	-1,046875	0,093750
	0,125000	-1,031250	0,093750
	0,140625	-1,046875	0,078125
	0,140625	-1,000000	0,093750
	0,109375	-0,984375	0,078125
	0,125000	-1,046875	0,093750
	0,125000	-1,046875	0,093750
	0,109375	-1,031250	0,062500
	0,109375	-1,046875	0,078125
	0,125000	-1,031250	0,093750
	0,125000	-1,031250	0,093750
	0,125000	-1,046875	0,093750
	0,109375	-1,031250	0,078125
	0,140625	-1,000000	0,125000
	0,140625	-1,046875	0,093750
	0,109375	-1,046875	0,078125
	0,109375	-1,046875	0,062500
	0,140625	-1,046875	0,093750
	0,109375	-1,046875	0,109375
	0,140625	-1,046875	0,093750
	0,109375	-1,015625	0,078125
	0,125000	-1,000000	0,078125
	0,109375	-1,046875	0,093750
	0,156250	-1,000000	0,125000
	0,125000	-1,031250	0,078125
	0,125000	-1,031250	0,109375
	0,156250	-1,031250	0,109375
	0,125000	-1,046875	0,093750
	0,109375	-1,046875	0,078125
	0,125000	-1,046875	0,093750
	0,140625	-1,046875	0,093750
	0,156250	-1,046875	0,093750
	0,109375	-1,031250	0,109375
	0,140625	-1,062500	0,078125
	0,125000	-1,046875	0,093750
	0,140625	-1,031250	0,093750
	0,140625	-1,031250	0,109375
	0,109375	-1,015625	0,093750
	0,125000	-1,015625	0,078125
	0,125000	-1,031250	0,109375
	0,125000	-1,031250	0,109375
	0,125000	-1,031250	0,093750
	0,109375	-1,046875	0,093750
	0,140625	-1,000000	0,125000
	0,125000	-1,031250	0,093750
	0,125000	-1,046875	0,078125
	0,109375	-1,046875	0,078125
	0,109375	-1,015625	0,093750
	0,125000	-1,031250	0,093750
	0,125000	-1,031250	0,078125
	0,125000	-1,031250	0,093750
	0,125000	-1,031250	0,078125
	0,140625	-1,031250	0,078125
	0,125000	-0,984375	0,125000
	0,125000	-1,078125	0,109375
	0,125000	-1,000000	0,046875
	0,125000	-1,015625	0,109375
	0,125000	-1,015625	0,093750
	0,125000	-1,015625	0,109375
	0,140625	-1,046875	0,093750
	0,156250	-1,031250	0,062500
	0,125000	-1,015625	0,062500
	0,109375	-1,015625	0,093750
	0,187500	-1,031250	0,125000
	0,125000	-1,046875	0,093750
	0,109375	-1,046875	0,078125
	0,156250	-1,046875	0,078125
	0,140625	-1,046875	0,078125
	0,140625	-1,031250	0,109375
	0,062500	-1,062500	0,093750
	0,125000	-1,031250	0,093750
	0,125000	-1,031250	0,093750
	0,109375	-1,015625	0,093750
	0,171875	-1,000000	0,093750
	0,125000	-1,031250	0,078125
	0,171875	-0,968750	0,125000
	0,125000	-1,031250	0,109375
	0,125000	-1,046875	0,078125
	0,171875	-1,031250	0,109375
	0,187500	-1,031250	0,093750
	0,125000	-1,031250	0,109375
	0,140625	-1,062500	0,078125
	0,140625	-1,046875	0,078125
	0,156250	-1,015625	0,093750
	0,125000	-1,031250	0,078125
	0,109375	-1,000000	0,078125
	0,140625	-1,000000	0,109375
	0,125000	-1,031250	0,093750
	0,109375	-1,015625	0,093750
	0,125000	-1,031250	0,062500
	0,109375	-1,046875	0,093750
	0,109375	-1,031250	0,093750
	0,109375	-1,031250	0,093750
	0,156250	-1,031250	0,140625
	0,125000	-1,046875	0,078125
	0,125000	-1,031250	0,078125
	0,140625	-1,000000	0,109375
	0,140625	-1,031250	0,078125
	0,109375	-1,031250	0,109375
	0,125000	-1,031250	0,062500
	0,125000	-1,000000	0,078125
	0,109375	-1,031250	0,093750
	0,125000	-1,015625	0,093750
	0,156250	-1,000000	0,109375
	0,109375	-1,015625	0,093750
	0,125000	-1,031250	0,078125
	0,140625	-1,031250	0,078125
	0,125000	-1,046875	0,078125
	0,125000	-1,046875	0,078125
	0,140625	-1,031250	0,078125
	0,125000	-1,062500	0,062500
	0,125000	-1,000000	0,093750
	0,125000	-1,031250	0,078125
	0,140625	-1,031250	0,078125
	0,109375	-1,031250	0,078125
	0,125000	-1,031250	0,093750
	0,125000	-1,046875	0,109375
	0,125000	-1,015625	0,109375
	0,140625	-1,031250	0,093750
	0,140625	-1,046875	0,093750
	0,125000	-1,046875	0,093750
	0,156250	-1,046875	0,046875
	0,093750	-1,015625	0,093750
	0,156250	-1,031250	0,125000
	0,109375	-1,031250	0,093750
	0,140625	-1,015625	0,109375
	0,125000	-1,031250	0,078125
	0,109375	-1,046875	0,109375
	0,140625	-1,062500	0,078125
	0,140625	-1,062500	0,078125
	0,109375	-1,046875	0,093750
	0,125000	-1,031250	0,062500
	0,140625	-1,031250	0,046875
	0,140625	-1,031250	0,125000
	0,156250	-1,031250	0,125000
	0,140625	-1,046875	0,109375
	0,062500	-1,078125	0,031250
	0,125000	-1,031250	0,078125
	0,125000	-1,046875	0,109375
	0,109375	-1,046875	0,093750
	0,125000	-1,031250	0,078125
	0,125000	-1,062500	0,093750
	0,140625	-1,062500	0,093750
	0,171875	-1,031250	0,062500
	0,109375	-1,031250	0,078125
	0,125000	-1,046875	0,062500
	0,093750	-1,031250	0,046875
	0,125000	-1,046875	0,078125
	0,125000	-1,046875	0,078125
	0,109375	-1,015625	0,062500
	0,125000	-1,046875	0,078125
	0,093750	-1,031250	0,093750
	0,109375	-1,000000	0,078125
	0,171875	-1,015625	0,109375
	0,140625	-1,031250	0,109375
	0,125000	-1,031250	0,109375
	0,140625	-1,000000	0,093750
	0,109375	-1,015625	0,078125
	0,125000	-1,015625	0,093750
	0,125000	-1,031250	0,093750
	0,140625	-1,062500	0,093750
	0,109375	-1,031250	0,093750
	0,140625	-1,046875	0,093750
	0,125000	-1,000000	0,078125
	0,156250	-1,031250	0,078125
	0,125000	-1,046875	0,109375
	0,109375	-1,015625	0,078125
	0,187500	-1,015625	0,125000
	0,125000	-1,015625	0,046875
	0,156250	-1,062500	0,062500
	0,125000	-1,015625	0,109375
	0,093750	-1,015625	0,093750
	0,109375	-1,046875	0,093750
	0,156250	-1,000000	0,109375
	0,140625	-1,046875	0,093750
	0,109375	-1,062500	0,078125
	0,109375	-1,046875	0,078125
	0,140625	-1,046875	0,093750
	0,140625	-1,000000	0,109375
	0,109375	-1,031250	0,109375
	0,125000	-1,031250	0,093750
	0,140625	-1,031250	0,078125
	0,156250	-1,046875	0,078125
	0,187500	-1,000000	0,140625
	0,109375	-1,031250	0,093750
	0,109375	-1,046875	0,093750
	0,156250	-1,031250	0,078125
	0,125000	-1,031250	0,078125
	0,125000	-1,062500	0,093750
	0,109375	-1,031250	0,062500
	0,125000	-1,031250	0,093750
	0,125000	-1,031250	0,093750
	0,140625	-1,046875	0,109375
	0,125000	-1,015625	0,078125
	0,140625	-1,046875	0,093750
	0,109375	-1,015625	0,093750
	0,140625	-1,046875	0,125000
	0,125000	-1,031250	0,125000
	0,125000	-1,031250	0,078125
	0,140625	-1,046875	0,078125
	0,125000	-1,015625	0,109375
	0,125000	-1,015625	0,093750
	0,125000	-1,046875	0,093750
	0,109375	-0,984375	0,093750
	0,125000	-1,015625	0,093750
	0,078125	-1,062500	0,062500
	0,125000	-1,031250	0,093750
	0,093750	-1,046875	0,093750
	0,140625	-1,031250	0,093750
	0,125000	-1,046875	0,109375
	0,125000	-1,046875	0,093750
	0,125000	-1,015625	0,093750
	0,140625	-1,046875	0,093750
	0,156250	-1,031250	0,078125
	0,125000	-1,015625	0,093750
	0,125000	-1,015625	0,093750
	0,125000	-1,015625	0,093750
	0,109375	-1,031250	0,093750
	0,125000	-1,015625	0,093750
	0,140625	-1,031250	0,093750
	0,125000	-1,031250	0,093750
	0,125000	-1,015625	0,078125
	0,109375	-1,031250	0,093750
	0,171875	-1,031250	0,125000
	0,109375	-1,031250	0,125000
	0,140625	-1,031250	0,062500
	0,125000	-1,031250	0,093750
	0,125000	-1,031250	0,109375
	0,109375	-1,015625	0,109375
	0,140625	-1,046875	0,109375
	0,125000	-1,062500	0,078125
	0,125000	-1,062500	0,109375
	0,125000	-1,031250	0,093750
	0,140625	-0,984375	0,140625
	0,109375	-1,046875	0,078125
	0,125000	-1,031250	0,078125
	0,125000	-1,046875	0,062500
	0,125000	-1,031250	0,093750
	0,125000	-1,046875	0,078125
	0,109375	-1,031250	0,078125
	0,125000	-1,031250	0,109375
	0,171875	-1,062500	0,093750
	0,125000	-1,015625	0,093750
	0,125000	-1,046875	0,109375
	0,109375	-1,031250	0,093750
	0,125000	-1,031250	0,109375
	0,125000	-1,031250	0,093750
	0,093750	-1,062500	0,109375
	0,125000	-1,031250	0,078125
	0,125000	-1,031250	0,093750
	0,125000	-1,015625	0,078125
	0,125000	-1,031250	0,109375
	0,140625	-1,015625	0,109375
	0,156250	-1,000000	0,125000
	0,109375	-1,046875	0,093750
	0,125000	-1,031250	0,093750
	0,125000	-1,031250	0,109375
	0,109375	-1,046875	0,078125
	0,109375	-1,015625	0,109375
	0,140625	-1,015625	0,109375
	0,125000	-1,031250	0,078125
	0,125000	-1,046875	0,109375
	0,125000	-1,015625	0,093750
	0,125000	-1,000000	0,140625
	0,125000	-1,031250	0,093750
	0,109375	-1,046875	0,093750
	0,109375	-1,015625	0,093750
	0,125000	-1,062500	0,125000
	0,125000	-1,046875	0,109375
	0,140625	-1,015625	0,078125
	0,125000	-1,015625	0,078125
	0,125000	-1,031250	0,109375
	0,125000	-1,031250	0,093750
	0,125000	-1,031250	0,125000
	0,125000	-1,031250	0,093750
	0,125000	-1,031250	0,078125
	0,140625	-1,046875	0,078125
	0,125000	-1,031250	0,109375
	0,171875	-1,000000	0,140625
	0,125000	-1,031250	0,093750
	0,109375	-1,031250	0,078125
	0,125000	-1,062500	0,109375
	0,093750	-1,031250	0,093750
	0,171875	-1,015625	0,093750
	0,125000	-1,031250	0,109375
	0,156250	-1,015625	0,093750
	0,125000	-1,015625	0,109375
	0,109375	-1,031250	0,078125
	0,140625	-1,015625	0,093750
	0,140625	-1,015625	0,109375
	0,109375	-1,046875	0,093750
	0,125000	-1,031250	0,109375
	0,125000	-1,015625	0,078125
	0,140625	-1,000000	0,093750
	0,140625	-1,000000	0,125000
	0,109375	-1,015625	0,109375
	0,125000	-1,000000	0,093750
	0,125000	-1,031250	0,093750
	0,109375	-1,015625	0,109375
	0,125000	-1,046875	0,093750
	0,125000	-1,015625	0,078125
	0,140625	-1,046875	0,109375
	0,109375	-1,031250	0,093750
	0,156250	-1,000000	0,109375
	0,125000	-1,031250	0,093750
	0,125000	-1,015625	0,109375
	0,140625	-1,046875	0,093750
	0,125000	-1,046875	0,093750
	0,109375	-1,015625	0,078125
	0,109375	-1,062500	0,125000
	0,109375	-1,031250	0,109375
	0,140625	-1,031250	0,078125
	0,125000	-1,046875	0,093750
	0,140625	-0,984375	0,125000
	0,140625	-1,046875	0,093750
	0,125000	-1,046875	0,109375
	0,109375	-1,046875	0,093750
	0,125000	-1,015625	0,078125
	0,125000	-1,046875	0,078125
	0,125000	-1,046875	0,093750
	0,109375	-1,031250	0,093750
	0,140625	-1,015625	0,093750
	0,125000	-1,031250	0,093750
	0,125000	-1,031250	0,093750
	0,125000	-1,031250	0,093750
	0,140625	-1,031250	0,093750
	0,125000	-1,031250	0,078125
	0,125000	-1,031250	0,093750
	0,140625	-1,031250	0,093750
	0,125000	-1,062500	0,109375
	0,140625	-1,046875	0,093750
	0,125000	-1,015625	0,109375
	0,125000	-1,031250	0,109375
	0,125000	-0,984375	0,125000
	0,156250	-1,015625	0,078125
	0,156250	-1,031250	0,078125
	0,125000	-1,031250	0,109375
	0,125000	-1,046875	0,078125
	0,140625	-1,015625	0,093750
	0,125000	-1,015625	0,093750
	0,109375	-1,031250	0,093750
	0,125000	-1,046875	0,093750
	0,109375	-1,015625	0,109375
	0,125000	-1,015625	0,093750
	0,125000	-1,015625	0,078125
	0,156250	-1,015625	0,109375
	0,125000	-1,046875	0,093750
	0,125000	-1,046875	0,093750
	0,140625	-1,031250	0,093750
	0,125000	-1,031250	0,109375
	0,125000	-1,015625	0,109375
	0,125000	-1,015625	0,093750
	0,109375	-1,031250	0,093750
	0,156250	-1,015625	0,109375
	0,140625	-1,046875	0,046875
	0,109375	-1,031250	0,125000
	0,109375	-1,031250	0,078125
	0,125000	-1,015625	0,093750
	0,125000	-1,031250	0,093750
	0,125000	-1,031250	0,109375
	0,125000	-1,046875	0,093750
	0,140625	-1,031250	0,093750
	0,125000	-1,046875	0,109375
	0,187500	-1,000000	0,156250
	0,140625	-1,046875	0,078125
	0,140625	-1,031250	0,078125
	0,109375	-1,031250	0,093750
	0,125000	-1,031250	0,078125
	0,125000	-1,031250	0,093750
	0,140625	-1,062500	0,078125
	0,125000	-1,031250	0,093750
	0,140625	-1,031250	0,109375
	0,109375	-1,046875	0,093750
	0,125000	-1,015625	0,125000
	0,140625	-1,015625	0,093750
	0,109375	-1,046875	0,109375
	0,109375	-1,062500	0,109375
	0,125000	-1,046875	0,078125
	0,125000	-1,015625	0,109375
	0,125000	-1,062500	0,078125
	0,125000	-1,015625	0,078125
	0,125000	-1,031250	0,109375
	0,140625	-1,015625	0,109375
	0,109375	-0,968750	0,109375
	0,125000	-1,046875	0,093750
	0,109375	-1,031250	0,140625
	0,125000	-1,046875	0,078125
	0,140625	-1,015625	0,093750
	0,140625	-1,031250	0,109375
	0,140625	-1,046875	0,078125
	0,125000	-1,031250	0,125000
	0,109375	-1,015625	0,078125
	0,125000	-1,031250	0,093750
	0,156250	-1,000000	0,140625
	0,125000	-1,046875	0,093750
	0,156250	-1,015625	0,140625
	0,140625	-1,031250	0,093750
	0,125000	-1,062500	0,109375
	0,109375	-1,046875	0,093750
	0,125000	-1,015625	0,093750
	0,125000	-1,031250	0,093750
	0,109375	-1,062500	0,109375
	0,125000	-1,031250	0,093750
	0,125000	-1,046875	0,109375
	0,187500	-1,000000	0,140625
	0,140625	-1,046875	0,109375
	0,109375	-1,015625	0,109375
	0,125000	-1,031250	0,093750
	0,140625	-1,015625	0,109375
	0,109375	-1,031250	0,109375
	0,125000	-1,000000	0,062500
	0,125000	-1,031250	0,078125
	0,125000	-1,031250	0,093750
	0,125000	-0,984375	0,140625
	0,125000	-1,015625	0,109375
	0,140625	-1,031250	0,093750
	0,109375	-1,015625	0,109375
	0,140625	-1,046875	0,093750
	0,125000	-1,015625	0,109375
	0,140625	-1,031250	0,093750
	0,125000	-1,031250	0,109375
	0,125000	-1,031250	0,109375
	0,140625	-1,031250	0,078125
	0,140625	-1,031250	0,109375
	0,156250	-1,015625	0,093750
	0,109375	-1,000000	0,093750
	0,125000	-1,015625	0,109375
	0,125000	-1,031250	0,078125
	0,125000	-1,015625	0,109375
	0,125000	-1,031250	0,093750
	0,125000	-1,015625	0,109375
	0,140625	-1,031250	0,093750
	0,125000	-1,031250	0,078125
	0,187500	-0,984375	0,093750
	0,125000	-1,046875	0,140625
	0,125000	-1,046875	0,125000
	0,125000	-1,031250	0,093750
	0,125000	-1,031250	0,109375
	0,109375	-1,031250	0,062500
	0,109375	-1,046875	0,125000
	0,125000	-1,031250	0,109375
	0,140625	-1,046875	0,093750
	0,125000	-1,046875	0,093750
	0,140625	-1,000000	0,140625
	0,125000	-1,031250	0,093750
	0,109375	-1,046875	0,093750
	0,140625	-1,031250	0,078125
	0,109375	-1,015625	0,093750
	0,125000	-1,078125	0,109375
	0,109375	-1,046875	0,109375
	0,125000	-1,015625	0,078125
	0,093750	-1,031250	0,109375
	0,125000	-1,046875	0,093750
	0,125000	-1,015625	0,109375
	0,125000	-1,046875	0,093750
	0,125000	-1,031250	0,093750
	0,078125	-1,062500	0,046875
	0,125000	-1,031250	0,109375
	0,140625	-1,046875	0,093750
	0,125000	-1,031250	0,093750
	0,140625	-1,031250	0,078125
	0,125000	-1,015625	0,078125
	0,125000	-1,015625	0,093750
	0,140625	-1,031250	0,125000
	0,125000	-1,046875	0,109375
	0,125000	-1,031250	0,078125
	0,140625	-1,031250	0,093750
	0,140625	-1,031250	0,093750
	0,109375	-1,015625	0,093750
	0,140625	-1,031250	0,125000
	0,125000	-1,062500	0,109375
	0,109375	-1,031250	0,109375
	0,109375	-1,046875	0,109375
	0,125000	-1,000000	0,109375
	0,125000	-1,015625	0,093750
	0,125000	-1,046875	0,109375
	0,125000	-1,031250	0,109375
	0,109375	-1,046875	0,062500
	0,125000	-1,000000	0,109375
	0,125000	-1,015625	0,109375
	0,125000	-1,015625	0,109375
	0,125000	-1,046875	0,062500
	0,140625	-1,031250	0,093750
	0,140625	-1,031250	0,093750
	0,125000	-1,015625	0,109375
	0,125000	-1,031250	0,093750
	0,125000	-1,046875	0,109375
	0,125000	-1,046875	0,109375
	0,109375	-1,031250	0,093750
	0,109375	-1,031250	0,109375
	0,125000	-1,046875	0,093750
	0,109375	-1,031250	0,093750
	0,125000	-1,031250	0,093750
	0,203125	-1,000000	0,125000
	0,140625	-1,015625	0,078125
	0,109375	-1,031250	0,093750
	0,109375	-1,031250	0,093750
	0,125000	-1,046875	0,093750
	0,125000	-1,015625	0,109375
	0,125000	-1,015625	0,093750
	0,109375	-1,031250	0,109375
	0,109375	-1,031250	0,093750
	0,125000	-1,062500	0,109375
	0,125000	-1,000000	0,109375
	0,140625	-1,031250	0,109375
	0,140625	-1,015625	0,078125
	0,140625	-1,031250	0,093750
	0,140625	-1,031250	0,093750
	0,140625	-1,031250	0,078125
	0,156250	-1,062500	0,062500
	0,125000	-1,046875	0,093750
	0,109375	-1,015625	0,093750
	0,140625	-1,031250	0,093750
	0,171875	-1,015625	0,125000
	0,093750	-1,046875	0,109375
	0,140625	-1,031250	0,078125
	0,140625	-1,031250	0,093750
	0,109375	-1,015625	0,093750
	0,125000	-1,031250	0,093750
	0,125000	-1,031250	0,093750
	0,109375	-1,031250	0,109375
	0,109375	-1,015625	0,093750
	0,125000	-1,015625	0,093750
	0,187500	-1,031250	0,140625
	0,109375	-1,031250	0,109375
	0,125000	-1,015625	0,109375
	0,093750	-1,031250	0,093750
	0,125000	-1,046875	0,093750
	0,140625	-1,031250	0,093750
	0,140625	-1,031250	0,078125
	0,140625	-1,031250	0,078125
	0,125000	-1,031250	0,093750
	0,125000	-1,046875	0,078125
	0,125000	-1,031250	0,109375
	0,109375	-1,015625	0,078125
	0,125000	-1,031250	0,125000
	0,093750	-1,046875	0,078125
	0,125000	-1,046875	0,078125
	0,109375	-1,031250	0,109375
	0,125000	-1,046875	0,109375
	0,140625	-1,015625	0,062500
	0,125000	-1,015625	0,062500
	0,125000	-1,015625	0,093750
	0,140625	-1,000000	0,109375
	0,125000	-1,031250	0,093750
	0,125000	-1,015625	0,093750
	0,140625	-1,015625	0,078125
	0,093750	-1,062500	0,078125
	0,156250	-1,015625	0,078125
	0,140625	-1,031250	0,109375
	0,125000	-1,015625	0,078125
	0,140625	-1,031250	0,078125
	0,109375	-1,031250	0,062500
	0,140625	-1,046875	0,125000
	0,140625	-1,015625	0,109375
	0,171875	-1,015625	0,109375
	0,093750	-1,031250	0,093750
	0,125000	-1,031250	0,093750
	0,125000	-1,031250	0,093750
	0,125000	-1,046875	0,109375
	0,125000	-1,015625	0,109375
	0,109375	-1,015625	0,093750
	0,125000	-1,062500	0,093750
	0,125000	-1,046875	0,109375
	0,125000	-1,031250	0,093750
	0,125000	-1,031250	0,078125
	0,062500	-1,046875	0,078125
	0,140625	-1,031250	0,109375
	0,125000	-1,046875	0,109375
	0,140625	-1,031250	0,093750
	0,109375	-1,015625	0,093750
	0,125000	-1,031250	0,109375
	0,125000	-1,015625	0,078125
	0,187500	-1,000000	0,078125
	0,109375	-1,046875	0,109375
	0,125000	-1,046875	0,109375
	0,125000	-1,046875	0,093750
	0,140625	-1,015625	0,093750
	0,156250	-1,015625	0,125000
	0,156250	-1,015625	0,140625
	0,109375	-1,031250	0,093750
	0,140625	-1,046875	0,093750
	0,125000	-1,046875	0,125000
	0,156250	-1,031250	0,109375
	0,187500	-1,046875	0,125000
	0,125000	-1,031250	0,093750
	0,140625	-1,015625	0,093750
	0,140625	-1,031250	0,093750
	0,140625	-1,031250	0,078125
	0,140625	-1,031250	0,078125
	0,140625	-1,046875	0,093750
	0,140625	-1,015625	0,078125
	0,140625	-1,015625	0,078125
	0,187500	-1,000000	0,125000
	0,125000	-1,031250	0,093750
	0,140625	-1,046875	0,078125
	0,156250	-1,062500	0,078125
	0,125000	-1,031250	0,078125
	0,109375	-1,046875	0,093750
	0,109375	-1,031250	0,078125
	0,125000	-1,046875	0,109375
	0,125000	-1,031250	0,093750
	0,125000	-1,031250	0,078125
	0,171875	-1,000000	0,109375
	0,125000	-1,015625	0,093750
	0,093750	-1,046875	0,078125
	0,125000	-1,031250	0,093750
	0,109375	-1,015625	0,093750
	0,140625	-1,031250	0,078125
	0,125000	-1,031250	0,109375
	0,140625	-1,031250	0,078125
	0,140625	-1,000000	0,093750
	0,140625	-1,031250	0,062500
	0,125000	-1,015625	0,125000
	0,125000	-1,031250	0,078125
	0,125000	-1,015625	0,109375
	0,140625	-0,984375	0,125000
	0,140625	-1,015625	0,109375
	0,125000	-1,031250	0,093750
	0,140625	-1,031250	0,078125
	0,140625	-1,031250	0,109375
	0,125000	-1,015625	0,078125
	0,125000	-1,031250	0,109375
	0,156250	-1,031250	0,109375
	0,125000	-1,031250	0,078125
	0,140625	-1,046875	0,093750
	0,156250	-1,031250	0,093750
	0,125000	-1,031250	0,078125
	0,140625	-1,015625	0,093750
	0,109375	-1,031250	0,078125
	0,140625	-1,015625	0,093750
	0,109375	-1,031250	0,093750
	0,140625	-1,046875	0,109375
	0,140625	-0,984375	0,093750
	0,109375	-1,031250	0,062500
	0,125000	-1,015625	0,093750
	0,140625	-1,031250	0,093750
	0,140625	-1,031250	0,125000
	0,109375	-1,046875	0,046875
	0,125000	-1,062500	0,078125
	0,125000	-1,031250	0,062500
	0,125000	-1,062500	0,078125
	0,109375	-1,046875	0,093750
	0,125000	-1,000000	0,109375
	0,125000	-1,031250	0,078125
	0,125000	-1,046875	0,078125
	0,093750	-1,031250	0,093750
	0,125000	-1,031250	0,062500
	0,125000	-1,031250	0,078125
	0,140625	-1,046875	0,093750
	0,140625	-1,046875	0,078125
	0,140625	-1,046875	0,062500
	0,156250	-1,046875	0,093750
	0,125000	-1,000000	0,093750
	0,109375	-1,046875	0,093750
	0,125000	-1,046875	0,078125
	0,125000	-1,031250	0,078125
	0,156250	-1,046875	0,062500
	0,125000	-1,046875	0,078125
	0,125000	-1,031250	0,109375
	0,125000	-1,031250	0,062500
	0,140625	-1,046875	0,093750
	0,125000	-1,031250	0,093750
	0,140625	-1,031250	0,078125
	0,140625	-1,015625	0,093750
	0,140625	-1,031250	0,093750
	0,156250	-1,031250	0,109375
	0,109375	-1,046875	0,093750
	0,140625	-1,062500	0,093750
	0,125000	-1,031250	0,093750
	0,125000	-1,031250	0,093750
	0,109375	-1,031250	0,062500
	0,140625	-1,046875	0,093750
	0,171875	-1,015625	0,093750
	0,125000	-1,031250	0,078125
	0,093750	-1,015625	0,062500
	0,140625	-1,000000	0,078125
	0,140625	-1,046875	0,062500
	0,187500	-0,984375	0,156250
	0,140625	-1,015625	0,109375
	0,125000	-1,031250	0,093750
	0,125000	-1,015625	0,093750
	0,109375	-1,046875	0,078125
	0,140625	-1,031250	0,125000
	0,140625	-1,031250	0,109375
	0,125000	-1,046875	0,078125
	0,156250	-1,031250	0,062500
	0,156250	-1,015625	0,078125
	0,125000	-1,031250	0,078125
	0,156250	-1,031250	0,062500
	0,109375	-1,031250	0,078125
	0,140625	-1,031250	0,093750
	0,125000	-1,031250	0,093750
	0,156250	-1,046875	0,078125
	0,125000	-1,015625	0,093750
	0,125000	-1,031250	0,093750
	0,078125	-1,078125	0,078125
	0,109375	-1,046875	0,093750
	0,125000	-1,046875	0,078125
	0,140625	-1,046875	0,093750
	0,140625	-1,046875	0,093750
	0,125000	-1,031250	0,093750
	0,140625	-1,015625	0,078125
	0,187500	-1,015625	0,109375
	0,156250	-1,015625	0,078125
	0,140625	-1,031250	0,093750
	0,156250	-1,015625	0,093750
	0,140625	-1,046875	0,078125
	0,109375	-1,031250	0,093750
	0,109375	-1,015625	0,093750
	0,109375	-1,031250	0,109375
	0,140625	-1,031250	0,093750
	0,125000	-1,015625	0,125000
	0,125000	-1,046875	0,125000
	0,125000	-1,031250	0,093750
	0,109375	-1,015625	0,078125
	0,140625	-1,046875	0,078125
	0,125000	-1,015625	0,078125
	0,125000	-1,062500	0,109375
	0,125000	-1,046875	0,093750
	0,125000	-1,046875	0,078125
	0,140625	-1,046875	0,093750
	0,109375	-1,015625	0,078125
	0,171875	-1,015625	0,140625
	0,093750	-1,031250	0,078125
	0,125000	-1,031250	0,062500
	0,140625	-1,031250	0,093750
	0,125000	-1,062500	0,093750
	0,140625	-1,046875	0,109375
	0,140625	-1,015625	0,093750
	0,156250	-1,062500	0,093750
	0,156250	-1,015625	0,093750
	0,125000	-1,000000	0,078125
	0,125000	-0,984375	0,125000
	0,125000	-1,000000	0,109375
	0,125000	-1,031250	0,109375
	0,093750	-1,062500	0,062500
	0,140625	-1,031250	0,078125
	0,125000	-1,015625	0,093750
	0,093750	-1,031250	0,078125
	0,125000	-1,015625	0,078125
	0,125000	-1,031250	0,093750
	0,140625	-1,031250	0,109375
	0,125000	-1,015625	0,078125
	0,109375	-1,031250	0,062500
	0,125000	-1,031250	0,078125
	0,125000	-1,031250	0,062500
	0,140625	-1,031250	0,093750
	0,140625	-1,015625	0,093750
	0,125000	-1,031250	0,078125
	0,125000	-1,031250	0,078125
	0,125000	-1,031250	0,062500
	0,109375	-1,046875	0,093750
	0,140625	-0,984375	0,109375
	0,125000	-1,031250	0,093750
	0,125000	-1,000000	0,078125
	0,140625	-1,031250	0,109375
	0,125000	-1,031250	0,109375
	0,140625	-1,046875	0,093750
	0,125000	-1,015625	0,109375
	0,140625	-1,046875	0,093750
	0,125000	-1,031250	0,093750
	0,140625	-1,046875	0,062500
	0,171875	-1,031250	0,125000
	0,140625	-1,046875	0,109375
	0,125000	-1,031250	0,093750
	0,125000	-1,031250	0,093750
	0,109375	-1,062500	0,078125
	0,125000	-1,031250	0,093750
	0,125000	-1,031250	0,062500
	0,140625	-1,031250	0,093750
	0,125000	-1,046875	0,078125
	0,140625	-1,062500	0,109375
	0,125000	-1,046875	0,125000
	0,109375	-1,015625	0,093750
	0,125000	-1,062500	0,078125
	0,125000	-1,031250	0,062500
	0,140625	-1,031250	0,062500
	0,203125	-1,000000	0,156250
	0,125000	-1,046875	0,093750
	0,140625	-1,031250	0,109375
	0,109375	-1,031250	0,093750
	0,109375	-1,015625	0,109375
	0,140625	-1,031250	0,125000
	0,156250	-1,031250	0,062500
	0,156250	-1,062500	0,093750
	0,093750	-1,031250	0,109375
	0,109375	-1,031250	0,109375
	0,109375	-1,000000	0,078125
	0,125000	-1,031250	0,093750
	0,109375	-1,031250	0,093750
	0,109375	-1,015625	0,078125
	0,109375	-1,031250	0,093750
	0,140625	-1,015625	0,156250
	0,140625	-1,046875	0,078125
	0,156250	-1,031250	0,093750
	0,125000	-1,015625	0,078125
	0,140625	-1,031250	0,093750
	0,156250	-1,031250	0,109375
	0,140625	-1,031250	0,109375
	0,125000	-1,046875	0,109375
	0,109375	-1,046875	0,093750
	0,125000	-1,046875	0,109375
	0,171875	-1,031250	0,093750
	0,093750	-1,046875	0,109375
	0,093750	-1,031250	0,093750
	0,125000	-1,031250	0,093750
	0,125000	-1,031250	0,078125
	0,156250	-1,031250	0,109375
	0,140625	-1,015625	0,093750
	0,156250	-1,015625	0,093750
	0,140625	-1,031250	0,078125
	0,109375	-1,015625	0,078125
	0,156250	-1,015625	0,125000
	0,093750	-1,046875	0,093750
	0,125000	-1,062500	0,093750
	0,109375	-1,015625	0,062500
	0,109375	-1,031250	0,093750
	0,125000	-1,031250	0,109375
	0,125000	-1,046875	0,078125
	0,109375	-1,031250	0,093750
	0,125000	-1,031250	0,093750
	0,140625	-1,046875	0,109375
	0,125000	-1,015625	0,109375
	0,125000	-1,031250	0,093750
	0,109375	-1,062500	0,109375
	0,140625	-1,000000	0,093750
	0,156250	-1,062500	0,109375
	0,140625	-1,031250	0,093750
	0,125000	-1,031250	0,093750
	0,125000	-1,046875	0,078125
	0,109375	-1,031250	0,093750
	0,109375	-1,015625	0,093750
	0,140625	-1,000000	0,125000
	0,140625	-1,031250	0,062500
	0,140625	-1,015625	0,093750
	0,125000	-1,015625	0,093750
	0,140625	-1,046875	0,109375
	0,125000	-1,062500	0,125000
	0,125000	-1,031250	0,093750
	0,125000	-1,046875	0,078125
	0,125000	-1,046875	0,093750
	0,125000	-1,015625	0,078125
	0,171875	-1,015625	0,109375
	0,156250	-1,046875	0,093750
	0,125000	-1,046875	0,125000
	0,109375	-1,062500	0,078125
	0,140625	-1,031250	0,093750
	0,125000	-1,015625	0,093750
	0,140625	-1,031250	0,093750
	0,125000	-1,031250	0,093750
	0,125000	-1,031250	0,093750
	0,140625	-1,031250	0,093750
	0,125000	-1,031250	0,109375
	0,125000	-1,031250	0,093750
	0,125000	-1,031250	0,093750
	0,109375	-1,031250	0,093750
	0,109375	-1,000000	0,109375
	0,109375	-1,062500	0,109375
	0,109375	-1,031250	0,078125
	0,125000	-1,031250	0,093750
	0,140625	-1,046875	0,093750
	0,109375	-1,031250	0,093750
	0,156250	-0,984375	0,125000
	0,125000	-1,031250	0,093750
	0,140625	-1,015625	0,109375
	0,109375	-1,031250	0,078125
	0,109375	-1,015625	0,109375
	0,125000	-1,031250	0,093750
	0,109375	-1,031250	0,093750
	0,109375	-1,031250	0,078125
	0,125000	-1,015625	0,093750
	0,140625	-1,031250	0,078125
	0,156250	-1,046875	0,109375
	0,156250	-1,015625	0,109375
	0,125000	-1,046875	0,109375
	0,078125	-1,062500	0,093750
	0,109375	-1,062500	0,062500
	0,109375	-1,031250	0,093750
	0,109375	-1,046875	0,093750
	0,125000	-1,046875	0,093750
	0,125000	-1,046875	0,093750
	0,125000	-1,031250	0,078125
	0,156250	-1,000000	0,109375
	0,140625	-1,031250	0,093750
	0,140625	-1,062500	0,078125
	0,125000	-1,015625	0,125000
	0,125000	-1,046875	0,109375
	0,156250	-1,031250	0,093750
	0,140625	-1,046875	0,109375
	0,140625	-1,046875	0,078125
	0,125000	-1,031250	0,109375
	0,125000	-1,031250	0,093750
	0,171875	-1,000000	0,140625
	0,109375	-1,031250	0,093750
	0,140625	-1,015625	0,093750
	0,093750	-1,031250	0,078125
	0,109375	-1,046875	0,109375
	0,125000	-1,015625	0,093750
	0,125000	-1,000000	0,078125
	0,109375	-1,031250	0,078125
	0,125000	-1,046875	0,093750
	0,125000	-1,046875	0,093750
	0,125000	-1,062500	0,093750
	0,125000	-1,031250	0,093750
	0,125000	-1,031250	0,109375
	0,109375	-1,062500	0,109375
	0,125000	-1,015625	0,109375
	0,125000	-1,046875	0,093750
	0,109375	-1,015625	0,093750
	0,125000	-1,046875	0,093750
	0,125000	-1,015625	0,093750
	0,140625	-1,046875	0,093750
	0,140625	-0,984375	0,125000
	0,109375	-1,031250	0,078125
	0,125000	-1,031250	0,109375
	0,125000	-1,000000	0,093750
	0,156250	-1,000000	0,093750
	0,140625	-1,031250	0,093750
	0,125000	-1,031250	0,109375
	0,093750	-1,046875	0,093750
	0,140625	-1,046875	0,078125
	0,156250	-1,015625	0,078125
	0,125000	-1,000000	0,093750
	0,109375	-1,015625	0,109375
	0,109375	-1,031250	0,078125
	0,125000	-1,062500	0,078125
	0,140625	-1,031250	0,062500
	0,125000	-1,015625	0,109375
	0,125000	-1,031250	0,109375
	0,125000	-1,031250	0,093750
	0,125000	-1,046875	0,093750
	0,109375	-1,031250	0,093750
	0,109375	-1,031250	0,093750
	0,109375	-1,000000	0,109375
	0,125000	-1,046875	0,078125
	0,125000	-1,015625	0,078125
	0,140625	-1,031250	0,078125
	0,140625	-1,000000	0,093750
	0,140625	-1,015625	0,093750
	0,125000	-1,015625	0,109375
	0,093750	-1,031250	0,093750
	0,140625	-1,031250	0,093750
	0,187500	-1,031250	0,109375
	0,125000	-1,046875	0,093750
	0,156250	-0,968750	0,156250
	0,109375	-1,031250	0,093750
	0,109375	-1,046875	0,078125
	0,125000	-1,031250	0,109375
	0,093750	-1,015625	0,093750
	0,140625	-1,031250	0,093750
	0,140625	-1,046875	0,062500
	0,140625	-1,015625	0,093750
	0,171875	-1,015625	0,125000
	0,140625	-1,015625	0,093750
	0,125000	-1,031250	0,109375
	0,140625	-1,046875	0,109375
	0,109375	-1,031250	0,078125
	0,109375	-1,046875	0,109375
	0,125000	-1,046875	0,093750
	0,093750	-1,031250	0,093750
	0,109375	-1,046875	0,093750
	0,125000	-1,031250	0,078125
	0,171875	-1,015625	0,140625
	0,125000	-1,031250	0,078125
	0,125000	-1,000000	0,078125
	0,125000	-1,046875	0,109375
	0,171875	-1,015625	0,078125
	0,125000	-1,046875	0,078125
	0,156250	-1,031250	0,093750
	0,140625	-1,031250	0,078125
	0,156250	-1,031250	0,093750
	0,125000	-1,062500	0,093750
	0,156250	-1,031250	0,109375
	0,125000	-1,046875	0,093750
	0,093750	-1,062500	0,078125
	0,140625	-1,046875	0,109375
	0,125000	-1,031250	0,109375
	0,140625	-1,015625	0,093750
	0,171875	-1,031250	0,125000
	0,140625	-1,062500	0,093750
	0,125000	-1,000000	0,078125
	0,125000	-1,015625	0,062500
	0,109375	-1,015625	0,109375
	0,109375	-1,046875	0,109375
	0,125000	-1,046875	0,093750
	0,125000	-1,015625	0,093750
	0,109375	-1,031250	0,078125
	0,109375	-1,046875	0,078125
	0,109375	-1,015625	0,078125
	0,109375	-1,046875	0,109375
	0,125000	-1,046875	0,093750
	0,109375	-1,015625	0,093750
	0,140625	-0,984375	0,140625
	0,109375	-1,031250	0,078125
	0,125000	-1,031250	0,078125
	0,093750	-1,078125	0,078125
	0,109375	-1,031250	0,093750
	0,125000	-1,046875	0,093750
	0,125000	-1,046875	0,109375
	0,109375	-1,031250	0,078125
	0,125000	-1,015625	0,109375
	0,109375	-1,046875	0,062500
	0,156250	-1,031250	0,109375
	0,125000	-1,000000	0,093750
	0,125000	-1,031250	0,078125
	0,140625	-0,984375	0,125000
	0,140625	-1,031250	0,078125
	0,140625	-1,015625	0,093750
	0,140625	-1,031250	0,093750
	0,109375	-1,031250	0,062500
	0,125000	-1,031250	0,062500
	0,140625	-1,015625	0,078125
	0,171875	-0,984375	0,093750
	0,140625	-1,031250	0,078125
	0,109375	-1,031250	0,093750
	0,140625	-1,031250	0,093750
	0,125000	-1,046875	0,109375
	0,109375	-1,015625	0,093750
	0,125000	-1,015625	0,109375
	0,125000	-1,046875	0,093750
	0,109375	-1,031250	0,125000
	0,125000	-1,031250	0,093750
	0,171875	-1,015625	0,093750
	0,125000	-1,015625	0,093750
	0,140625	-1,046875	0,093750
	0,140625	-1,015625	0,125000
	0,125000	-1,031250	0,062500
	0,109375	-1,031250	0,109375
	0,125000	-1,031250	0,078125
	0,140625	-1,031250	0,078125
	0,125000	-1,000000	0,062500
	0,125000	-1,031250	0,093750
	0,125000	-1,015625	0,109375
	0,140625	-1,046875	0,078125
	0,125000	-1,015625	0,109375
	0,109375	-1,046875	0,078125
	0,109375	-1,046875	0,109375
	0,109375	-1,046875	0,093750
	0,125000	-1,046875	0,093750
	0,109375	-1,031250	0,109375
	0,125000	-1,015625	0,093750
	0,140625	-1,015625	0,078125
	0,125000	-0,984375	0,125000
	0,125000	-1,015625	0,093750
	0,140625	-1,031250	0,078125
	0,125000	-1,062500	0,093750
	0,140625	-1,046875	0,078125
	0,109375	-1,015625	0,078125
	0,140625	-1,031250	0,062500
	0,140625	-1,031250	0,093750
	0,140625	-1,031250	0,093750
	0,140625	-1,062500	0,078125
	0,140625	-1,000000	0,093750
	0,125000	-1,031250	0,078125
	0,140625	-1,046875	0,078125
	0,125000	-1,031250	0,078125
	0,109375	-1,062500	0,062500
	0,109375	-1,046875	0,109375
	0,125000	-1,031250	0,093750
	0,125000	-1,062500	0,062500
	0,140625	-1,031250	0,078125
	0,109375	-1,015625	0,078125
	0,125000	-1,031250	0,093750
	0,125000	-1,031250	0,093750
	0,187500	-1,031250	0,109375
	0,125000	-1,015625	0,093750
	0,109375	-1,031250	0,093750
	0,125000	-1,015625	0,093750
	0,109375	-1,015625	0,078125
	0,109375	-1,031250	0,078125
	0,109375	-1,015625	0,109375
	0,125000	-1,031250	0,109375
	0,140625	-1,015625	0,109375
	0,156250	-1,062500	0,078125
	0,109375	-1,046875	0,078125
	0,109375	-1,046875	0,125000
	0,125000	-1,046875	0,093750
	0,156250	-0,984375	0,125000
	0,109375	-1,000000	0,125000
	0,156250	-1,046875	0,062500
	0,140625	-1,046875	0,093750
	0,125000	-1,015625	0,109375
	0,140625	-1,015625	0,109375
	0,125000	-1,000000	0,125000
	0,125000	-1,046875	0,093750
	0,140625	-1,062500	0,078125
	0,125000	-1,031250	0,125000
	0,109375	-1,031250	0,093750
	0,140625	-1,062500	0,093750
	0,125000	-1,046875	0,062500
	0,125000	-1,062500	0,093750
	0,109375	-1,046875	0,078125
	0,171875	-1,031250	0,093750
	0,125000	-1,046875	0,093750
	0,140625	-1,015625	0,093750
	0,109375	-1,062500	0,078125
	0,125000	-1,031250	0,093750
	0,140625	-1,062500	0,093750
	0,109375	-1,015625	0,078125
	0,140625	-1,062500	0,062500
	0,109375	-1,046875	0,093750
	0,093750	-1,031250	0,093750
	0,156250	-1,015625	0,109375
	0,156250	-1,046875	0,078125
	0,125000	-1,046875	0,093750
	0,125000	-1,015625	0,109375
	0,125000	-1,046875	0,062500
	0,125000	-1,015625	0,078125
	0,140625	-1,031250	0,109375
	0,125000	-1,031250	0,093750
	0,109375	-1,031250	0,093750
	0,109375	-1,031250	0,093750
	0,109375	-1,046875	0,109375
	0,125000	-1,031250	0,093750
	0,140625	-1,015625	0,093750
	0,125000	-1,031250	0,109375
	0,140625	-1,015625	0,109375
	0,109375	-1,046875	0,062500
	0,125000	-1,031250	0,062500
	0,125000	-1,078125	0,046875
	0,140625	-1,078125	0,093750
	0,109375	-1,031250	0,078125
	0,171875	-1,015625	0,109375
	0,109375	-1,031250	0,093750
	0,125000	-1,078125	0,093750
	0,140625	-1,015625	0,078125
	0,125000	-1,046875	0,093750
	0,140625	-1,031250	0,078125
	0,125000	-1,015625	0,078125
	0,140625	-1,015625	0,078125
	0,140625	-1,015625	0,062500
	0,156250	-1,031250	0,062500
	0,171875	-1,000000	0,093750
	0,156250	-1,015625	0,078125
	0,156250	-1,046875	0,046875
	0,140625	-1,046875	0,062500
	0,125000	-1,046875	0,062500
	0,109375	-1,015625	0,093750
	0,109375	-1,031250	0,078125
	0,156250	-1,015625	0,078125
	0,109375	-1,046875	0,093750
	0,140625	-1,031250	0,093750
	0,140625	-1,000000	0,093750
	0,125000	-1,031250	0,078125
	0,125000	-1,062500	0,078125
	0,140625	-1,031250	0,078125
	0,109375	-1,031250	0,078125
	0,093750	-1,046875	0,078125
	0,125000	-1,031250	0,078125
	0,125000	-1,015625	0,078125
	0,109375	-1,015625	0,109375
	0,093750	-1,015625	0,093750
	0,171875	-1,015625	0,093750
	0,093750	-1,046875	0,109375
	0,109375	-1,031250	0,109375
	0,078125	-1,062500	0,062500
	0,109375	-1,046875	0,093750
	0,125000	-1,031250	0,093750
	0,125000	-1,015625	0,078125
	0,125000	-1,031250	0,078125
	0,109375	-1,062500	0,093750
	0,125000	-1,031250	0,078125
	0,140625	-1,031250	0,109375
	0,171875	-1,015625	0,109375
	0,140625	-1,031250	0,046875
	0,140625	-1,031250	0,062500
	0,125000	-1,046875	0,062500
	0,125000	-1,046875	0,078125
	0,140625	-1,046875	0,078125
	0,140625	-1,046875	0,093750
	0,109375	-1,031250	0,093750
	0,140625	-1,046875	0,093750
	0,140625	-0,984375	0,140625
	0,140625	-1,046875	0,078125
	0,140625	-1,000000	0,078125
	0,125000	-1,031250	0,093750
	0,125000	-1,046875	0,093750
	0,156250	-1,000000	0,125000
	0,156250	-1,031250	0,093750
	0,140625	-1,015625	0,109375
	0,109375	-1,031250	0,093750
	0,109375	-1,015625	0,093750
	0,156250	-1,000000	0,125000
	0,125000	-1,046875	0,062500
	0,125000	-1,015625	0,093750
	0,125000	-1,031250	0,062500
	0,109375	-1,031250	0,078125
	0,125000	-1,031250	0,109375
	0,156250	-1,031250	0,062500
	0,109375	-1,031250	0,093750
	0,125000	-1,031250	0,062500
	0,140625	-1,046875	0,062500
	0,109375	-1,031250	0,093750
	0,125000	-1,031250	0,093750
	0,125000	-1,046875	0,078125
	0,109375	-1,062500	0,046875
	0,093750	-1,046875	0,062500
	0,125000	-1,046875	0,109375
	0,125000	-1,062500	0,109375
	0,109375	-1,031250	0,093750
	0,125000	-1,015625	0,078125
	0,109375	-1,031250	0,078125
	0,171875	-1,031250	0,125000
	0,125000	-1,031250	0,062500
	0,140625	-1,062500	0,062500
	0,140625	-1,031250	0,078125
	0,109375	-1,078125	0,062500
	0,109375	-1,046875	0,093750
	0,109375	-1,031250	0,093750
	0,125000	-1,031250	0,078125
	0,125000	-1,015625	0,078125
	0,125000	-1,031250	0,046875
	0,156250	-1,000000	0,078125
	0,156250	-1,031250	0,093750
	0,093750	-1,046875	0,062500
	0,125000	-1,031250	0,078125
	0,156250	-1,015625	0,078125
	0,109375	-1,015625	0,078125
	0,125000	-1,046875	0,078125
	0,125000	-1,031250	0,078125
	0,125000	-1,031250	0,078125
	0,109375	-1,031250	0,078125
	0,140625	-1,046875	0,078125
	0,125000	-1,031250	0,062500
	0,093750	-1,046875	0,093750
	0,156250	-1,015625	0,062500
	0,109375	-1,015625	0,078125
	0,125000	-1,031250	0,078125
	0,140625	-1,015625	0,093750
	0,125000	-1,031250	0,109375
	0,125000	-1,046875	0,093750
	0,140625	-1,031250	0,078125
	0,187500	-1,015625	0,109375
	0,109375	-1,031250	0,078125
	0,109375	-1,031250	0,078125
	0,125000	-1,046875	0,062500
	0,125000	-1,031250	0,093750
	0,125000	-1,015625	0,093750
	0,125000	-1,031250	0,062500
	0,125000	-1,031250	0,078125
	0,125000	-1,015625	0,078125
	0,109375	-1,015625	0,093750
	0,171875	-1,031250	0,093750
	0,156250	-1,000000	0,109375
	0,109375	-1,015625	0,078125
	0,109375	-1,031250	0,093750
	0,125000	-1,015625	0,078125
	0,125000	-1,031250	0,093750
	0,125000	-1,046875	0,078125
	0,125000	-1,031250	0,062500
	0,156250	-1,031250	0,093750
	0,125000	-1,015625	0,078125
	0,187500	-1,000000	0,109375
	0,125000	-1,031250	0,093750
	0,156250	-1,031250	0,078125
	0,125000	-1,046875	0,109375
	0,156250	-1,031250	0,125000
	0,125000	-1,015625	0,078125
	0,140625	-1,031250	0,078125
	0,125000	-1,046875	0,078125
	0,109375	-1,015625	0,093750
	0,125000	-1,046875	0,093750
	0,109375	-0,968750	0,140625
	0,140625	-1,031250	0,093750
	0,109375	-1,015625	0,078125
	0,125000	-1,031250	0,093750
	0,109375	-1,015625	0,093750
	0,140625	-1,031250	0,078125
	0,109375	-1,046875	0,078125
	0,140625	-1,046875	0,109375
	0,140625	-1,031250	0,093750
	0,140625	-1,031250	0,093750
	0,140625	-1,062500	0,093750
	0,109375	-1,046875	0,093750
	0,140625	-1,046875	0,093750
	0,093750	-1,078125	0,093750
	0,125000	-1,031250	0,093750
	0,203125	-0,968750	0,109375
	0,093750	-1,031250	0,093750
	0,140625	-1,046875	0,093750
	0,109375	-1,031250	0,093750
	0,109375	-1,031250	0,078125
	0,156250	-1,031250	0,125000
	0,125000	-1,031250	0,078125
	0,125000	-1,046875	0,093750
	0,093750	-1,046875	0,093750
	0,125000	-1,031250	0,093750
	0,109375	-1,046875	0,078125
	0,125000	-1,015625	0,093750
	0,125000	-1,015625	0,093750
	0,109375	-1,015625	0,093750
	0,156250	-1,031250	0,093750
	0,156250	-1,015625	0,078125
	0,125000	-1,031250	0,109375
	0,125000	-1,046875	0,046875
	0,140625	-1,046875	0,109375
	0,093750	-1,015625	0,093750
	0,109375	-1,046875	0,093750
	0,140625	-1,046875	0,109375
	0,125000	-1,046875	0,093750
	0,125000	-1,062500	0,062500
	0,140625	-1,015625	0,078125
	0,156250	-0,968750	0,109375
	0,140625	-1,046875	0,078125
	0,109375	-1,062500	0,078125
	0,156250	-1,015625	0,140625
	0,109375	-1,031250	0,093750
	0,125000	-1,031250	0,093750
	0,125000	-1,031250	0,093750
	0,125000	-1,031250	0,078125
	0,109375	-1,031250	0,078125
	0,109375	-1,031250	0,093750
	0,140625	-1,000000	0,140625
	0,125000	-1,031250	0,109375
	0,125000	-1,046875	0,078125
	0,125000	-1,031250	0,078125
	0,125000	-1,031250	0,062500
	0,109375	-1,031250	0,093750
	0,140625	-1,046875	0,093750
	0,140625	-1,031250	0,093750
	0,125000	-1,031250	0,093750
	0,109375	-1,015625	0,093750
	0,140625	-1,031250	0,109375
	0,109375	-1,031250	0,093750
	0,171875	-0,984375	0,125000
	0,109375	-1,000000	0,078125
	0,109375	-1,031250	0,093750
	0,109375	-1,031250	0,093750
	0,109375	-1,031250	0,093750
	0,125000	-1,015625	0,109375
	0,140625	-1,031250	0,062500
	0,109375	-1,031250	0,109375
	0,156250	-0,968750	0,125000
	0,109375	-1,031250	0,109375
	0,109375	-1,046875	0,078125
	0,156250	-0,968750	0,109375
	0,140625	-1,046875	0,078125
	0,156250	-1,062500	0,078125
	0,093750	-1,031250	0,078125
	0,140625	-1,046875	0,078125
	0,125000	-1,046875	0,093750
	0,125000	-1,031250	0,109375
	0,156250	-0,984375	0,125000
	0,140625	-1,015625	0,109375
	0,125000	-1,015625	0,078125
	0,156250	-1,046875	0,062500
	0,125000	-1,031250	0,093750
	0,125000	-1,046875	0,078125
	0,125000	-1,046875	0,078125
	0,109375	-1,000000	0,093750
	0,125000	-1,031250	0,093750
	0,125000	-1,046875	0,109375
	0,140625	-1,015625	0,093750
	0,109375	-1,031250	0,093750
	0,109375	-1,031250	0,140625
	0,109375	-1,062500	0,093750
	0,125000	-1,015625	0,093750
	0,125000	-1,031250	0,093750
	0,125000	-1,046875	0,062500
	0,109375	-1,015625	0,062500
	0,125000	-1,046875	0,093750
	0,109375	-1,062500	0,093750
	0,140625	-0,984375	0,093750
	0,109375	-1,046875	0,093750
	0,109375	-1,031250	0,093750
	0,156250	-1,031250	0,093750
	0,156250	-1,062500	0,078125
	0,140625	-1,046875	0,093750
	0,125000	-1,046875	0,109375
	0,093750	-1,015625	0,093750
	0,093750	-1,015625	0,093750
	0,125000	-1,046875	0,109375
	0,125000	-1,015625	0,093750
	0,109375	-1,000000	0,109375
	0,093750	-1,031250	0,078125
	0,109375	-1,093750	0,062500
	0,109375	-1,031250	0,062500
	0,125000	-1,046875	0,078125
	0,125000	-1,031250	0,109375
	0,093750	-1,015625	0,078125
	0,125000	-1,046875	0,093750
	0,140625	-1,015625	0,093750
	0,140625	-1,015625	0,125000
	0,140625	-1,046875	0,109375
	0,125000	-1,015625	0,078125
	0,109375	-1,031250	0,093750
	0,125000	-1,031250	0,062500
	0,125000	-1,046875	0,093750
	0,125000	-1,046875	0,109375
	0,125000	-1,031250	0,093750
	0,109375	-1,031250	0,093750
	0,125000	-1,031250	0,125000
	0,156250	-1,000000	0,109375
	0,125000	-1,031250	0,093750
	0,140625	-1,000000	0,078125
	0,140625	-1,046875	0,078125
	0,109375	-1,015625	0,093750
	0,125000	-1,031250	0,062500
	0,140625	-1,046875	0,062500
	0,125000	-1,031250	0,093750
	0,109375	-1,031250	0,093750
	0,109375	-1,031250	0,078125
	0,109375	-1,015625	0,093750
	0,125000	-1,046875	0,093750
	0,125000	-1,000000	0,125000
	0,109375	-1,015625	0,109375
	0,109375	-1,031250	0,078125
	0,125000	-1,031250	0,093750
	0,109375	-1,031250	0,078125
	0,125000	-1,015625	0,125000
	0,140625	-1,031250	0,109375
	0,109375	-1,046875	0,093750
	0,171875	-1,000000	0,125000
	0,125000	-1,078125	0,109375
	0,125000	-1,062500	0,078125
	0,125000	-1,046875	0,109375
	0,125000	-1,031250	0,093750
	0,125000	-1,031250	0,078125
	0,109375	-1,046875	0,093750
	0,125000	-1,015625	0,125000
	0,140625	-1,046875	0,062500
	0,140625	-1,046875	0,093750
	0,140625	-1,000000	0,093750
	0,140625	-1,046875	0,078125
	0,109375	-1,031250	0,109375
	0,078125	-1,046875	0,078125
	0,140625	-1,031250	0,078125
	0,125000	-1,031250	0,093750
	0,140625	-1,046875	0,093750
	0,140625	-1,046875	0,109375
	0,140625	-1,031250	0,093750
	0,140625	-1,046875	0,093750
	0,140625	-1,046875	0,093750
	0,125000	-1,046875	0,093750
	0,093750	-1,015625	0,093750
	0,140625	-1,031250	0,109375
	0,109375	-1,046875	0,093750
	0,109375	-1,046875	0,093750
	0,125000	-1,031250	0,109375
	0,140625	-1,062500	0,093750
	0,125000	-1,031250	0,093750
	0,125000	-1,000000	0,078125
	0,156250	-1,015625	0,125000
	0,125000	-1,046875	0,093750
	0,109375	-1,031250	0,125000
	0,109375	-1,046875	0,125000
	0,140625	-1,015625	0,093750
	0,109375	-1,031250	0,109375
	0,125000	-1,031250	0,093750
	0,125000	-1,046875	0,109375
	0,109375	-1,015625	0,093750
	0,125000	-1,015625	0,093750
	0,140625	-1,015625	0,109375
	0,125000	-1,031250	0,109375
	0,125000	-1,078125	0,078125
	0,093750	-1,031250	0,078125
	0,125000	-1,046875	0,093750
	0,109375	-1,000000	0,093750
	0,125000	-1,046875	0,093750
	0,125000	-1,000000	0,093750
	0,140625	-1,015625	0,078125
	0,109375	-1,015625	0,078125
	0,140625	-0,984375	0,093750
	0,109375	-1,031250	0,093750
	0,140625	-1,046875	0,078125
	0,109375	-1,046875	0,062500
	0,125000	-1,062500	0,093750
	0,109375	-1,031250	0,125000
	0,140625	-1,031250	0,078125
	0,109375	-1,015625	0,078125
	0,125000	-1,031250	0,109375
