	395,000000	20460,000000
	385,000000	20460,000000
	385,000000	20470,000000
	380,000000	20470,000000
	370,000000	20475,000000
	355,000000	20470,000000
	355,000000	20470,000000
	355,000000	20470,000000
	355,000000	20470,000000
	355,000000	20470,000000
	365,000000	20470,000000
	360,000000	20470,000000
	355,000000	20470,000000
	355,000000	20475,000000
	365,000000	20475,000000
	360,000000	20470,000000
	355,000000	20465,000000
	355,000000	20460,000000
	355,000000	20470,000000
	360,000000	20475,000000
	360,000000	20470,000000
	360,000000	20465,000000
	355,000000	20470,000000
	355,000000	20470,000000
	365,000000	20470,000000
	370,000000	20470,000000
	365,000000	20470,000000
	365,000000	20470,000000
	380,000000	20470,000000
	380,000000	20470,000000
	390,000000	20470,000000
	395,000000	20470,000000
	395,000000	20470,000000
	395,000000	20465,000000
	390,000000	20465,000000
	400,000000	20470,000000
	415,000000	20470,000000
	420,000000	20465,000000
	420,000000	20465,000000
	420,000000	20465,000000
	420,000000	20465,000000
	425,000000	20470,000000
	435,000000	20470,000000
	445,000000	20470,000000
	445,000000	20470,000000
	450,000000	20470,000000
	450,000000	20470,000000
	455,000000	20470,000000
	480,000000	20465,000000
	505,000000	20465,000000
	495,000000	20465,000000
	495,000000	20470,000000
	500,000000	20470,000000
	495,000000	20475,000000
	505,000000	20470,000000
	510,000000	20465,000000
	510,000000	20460,000000
	510,000000	20460,000000
	515,000000	20460,000000
	530,000000	20465,000000
	535,000000	20465,000000
	545,000000	20465,000000
	545,000000	20470,000000
	555,000000	20465,000000
	560,000000	20460,000000
	565,000000	20465,000000
	575,000000	20475,000000
	575,000000	20475,000000
	580,000000	20470,000000
	590,000000	20470,000000
	610,000000	20470,000000
	610,000000	20470,000000
	605,000000	20470,000000
	605,000000	20470,000000
	610,000000	20470,000000
	615,000000	20465,000000
	620,000000	20465,000000
	645,000000	20470,000000
	665,000000	20470,000000
	655,000000	20475,000000
	655,000000	20470,000000
	660,000000	20475,000000
	670,000000	20470,000000
	675,000000	20475,000000
	670,000000	20475,000000
	665,000000	20470,000000
	660,000000	20475,000000
	665,000000	20470,000000
	665,000000	20470,000000
	665,000000	20465,000000
	665,000000	20465,000000
	670,000000	20470,000000
	670,000000	20465,000000
	675,000000	20470,000000
	670,000000	20470,000000
	665,000000	20465,000000
	670,000000	20465,000000
	675,000000	20465,000000
	675,000000	20465,000000
	680,000000	20470,000000
	680,000000	20470,000000
	675,000000	20465,000000
	675,000000	20465,000000
	675,000000	20465,000000
	665,000000	20470,000000
	660,000000	20470,000000
	660,000000	20470,000000
	655,000000	20470,000000
	645,000000	20470,000000
	640,000000	20470,000000
	630,000000	20470,000000
	620,000000	20465,000000
	615,000000	20475,000000
	605,000000	20475,000000
	595,000000	20475,000000
	595,000000	20470,000000
	595,000000	20470,000000
	585,000000	20470,000000
	565,000000	20470,000000
	550,000000	20470,000000
	545,000000	20470,000000
	535,000000	20470,000000
	525,000000	20475,000000
	515,000000	20475,000000
	515,000000	20485,000000
	515,000000	20485,000000
	515,000000	20490,000000
	510,000000	20475,000000
	490,000000	20470,000000
	470,000000	20475,000000
	460,000000	20475,000000
	455,000000	20475,000000
	445,000000	20475,000000
	440,000000	20475,000000
	430,000000	20475,000000
	430,000000	20475,000000
	420,000000	20475,000000
	415,000000	20475,000000
	405,000000	20470,000000
	400,000000	20475,000000
	390,000000	20475,000000
	385,000000	20475,000000
	380,000000	20475,000000
	370,000000	20475,000000
	350,000000	20475,000000
	345,000000	20475,000000
	345,000000	20475,000000
	340,000000	20470,000000
	335,000000	20465,000000
	330,000000	20465,000000
	330,000000	20470,000000
	340,000000	20470,000000
	355,000000	20475,000000
	355,000000	20475,000000
	350,000000	20470,000000
	335,000000	20465,000000
	325,000000	20460,000000
	330,000000	20465,000000
	320,000000	20470,000000
	315,000000	20470,000000
	305,000000	20475,000000
	300,000000	20475,000000
	295,000000	20485,000000
	300,000000	20475,000000
	295,000000	20475,000000
	280,000000	20475,000000
	275,000000	20475,000000
	280,000000	20475,000000
	275,000000	20475,000000
	270,000000	20470,000000
	265,000000	20470,000000
	260,000000	20470,000000
	255,000000	20470,000000
	255,000000	20470,000000
	250,000000	20475,000000
	240,000000	20475,000000
	230,000000	20475,000000
	230,000000	20470,000000
	225,000000	20475,000000
	210,000000	20475,000000
	205,000000	20475,000000
	220,000000	20485,000000
	220,000000	20475,000000
	230,000000	20475,000000
	230,000000	20485,000000
	230,000000	20485,000000
	225,000000	20475,000000
	220,000000	20475,000000
	215,000000	20475,000000
	215,000000	20470,000000
	220,000000	20470,000000
	220,000000	20470,000000
	230,000000	20470,000000
	240,000000	20470,000000
	245,000000	20470,000000
	250,000000	20465,000000
	240,000000	20470,000000
	240,000000	20475,000000
	240,000000	20475,000000
	255,000000	20475,000000
	260,000000	20475,000000
	260,000000	20470,000000
	265,000000	20470,000000
	265,000000	20475,000000
	265,000000	20475,000000
	275,000000	20475,000000
	280,000000	20470,000000
	285,000000	20470,000000
	285,000000	20470,000000
	290,000000	20470,000000
	295,000000	20470,000000
	300,000000	20475,000000
	295,000000	20475,000000
	295,000000	20475,000000
	300,000000	20475,000000
	310,000000	20480,000000
	320,000000	20480,000000
	320,000000	20475,000000
	320,000000	20470,000000
	320,000000	20475,000000
	320,000000	20475,000000
	325,000000	20485,000000
	335,000000	20480,000000
	345,000000	20475,000000
	345,000000	20475,000000
	355,000000	20475,000000
	365,000000	20475,000000
	380,000000	20485,000000
	370,000000	20475,000000
	365,000000	20475,000000
	365,000000	20470,000000
	355,000000	20470,000000
	350,000000	20470,000000
	355,000000	20475,000000
	355,000000	20470,000000
	355,000000	20475,000000
	355,000000	20475,000000
	360,000000	20475,000000
	360,000000	20470,000000
	355,000000	20470,000000
	360,000000	20475,000000
	360,000000	20485,000000
	360,000000	20485,000000
	355,000000	20475,000000
	355,000000	20470,000000
	355,000000	20470,000000
	350,000000	20470,000000
	355,000000	20465,000000
	355,000000	20460,000000
	350,000000	20460,000000
	350,000000	20465,000000
	350,000000	20465,000000
	350,000000	20465,000000
	355,000000	20465,000000
	350,000000	20465,000000
	350,000000	20470,000000
	350,000000	20470,000000
	345,000000	20470,000000
	340,000000	20465,000000
	335,000000	20470,000000
	330,000000	20470,000000
	330,000000	20470,000000
	325,000000	20470,000000
	320,000000	20470,000000
	320,000000	20470,000000
	315,000000	20470,000000
	300,000000	20470,000000
	300,000000	20470,000000
	295,000000	20465,000000
	300,000000	20465,000000
	300,000000	20470,000000
	290,000000	20465,000000
	275,000000	20465,000000
	270,000000	20465,000000
	260,000000	20460,000000
	250,000000	20460,000000
	240,000000	20460,000000
	240,000000	20465,000000
	225,000000	20455,000000
	230,000000	20455,000000
	240,000000	20460,000000
	240,000000	20460,000000
	240,000000	20455,000000
	240,000000	20460,000000
	220,000000	20470,000000
	210,000000	20465,000000
	205,000000	20470,000000
	205,000000	20470,000000
	205,000000	20460,000000
	195,000000	20470,000000
	190,000000	20470,000000
	190,000000	20470,000000
	200,000000	20465,000000
	205,000000	20465,000000
	205,000000	20470,000000
	205,000000	20470,000000
	205,000000	20465,000000
	200,000000	20465,000000
	195,000000	20465,000000
	195,000000	20470,000000
	195,000000	20470,000000
	190,000000	20470,000000
	195,000000	20470,000000
	210,000000	20470,000000
	230,000000	20470,000000
	240,000000	20475,000000
	230,000000	20475,000000
	220,000000	20475,000000
	215,000000	20470,000000
	215,000000	20470,000000
	225,000000	20470,000000
	240,000000	20475,000000
	240,000000	20475,000000
	245,000000	20475,000000
	245,000000	20475,000000
	245,000000	20475,000000
	260,000000	20470,000000
	270,000000	20470,000000
	275,000000	20470,000000
	275,000000	20470,000000
	270,000000	20470,000000
	270,000000	20470,000000
	275,000000	20470,000000
	275,000000	20460,000000
	275,000000	20470,000000
	275,000000	20470,000000
	275,000000	20475,000000
	285,000000	20475,000000
	280,000000	20470,000000
	285,000000	20470,000000
	295,000000	20470,000000
	305,000000	20470,000000
	305,000000	20470,000000
	310,000000	20470,000000
	300,000000	20470,000000
	295,000000	20470,000000
	295,000000	20470,000000
	310,000000	20470,000000
	320,000000	20470,000000
	320,000000	20470,000000
	320,000000	20465,000000
	315,000000	20470,000000
	310,000000	20470,000000
	320,000000	20470,000000
	340,000000	20465,000000
	355,000000	20460,000000
	365,000000	20460,000000
	390,000000	20465,000000
	410,000000	20465,000000
	445,000000	20470,000000
	480,000000	20465,000000
	505,000000	20465,000000
	535,000000	20465,000000
	570,000000	20470,000000
	590,000000	20470,000000
	615,000000	20470,000000
	635,000000	20470,000000
	645,000000	20470,000000
	640,000000	20470,000000
	625,000000	20465,000000
	625,000000	20465,000000
	620,000000	20460,000000
	615,000000	20465,000000
	610,000000	20465,000000
	615,000000	20470,000000
	615,000000	20470,000000
	615,000000	20465,000000
	620,000000	20470,000000
	625,000000	20470,000000
	635,000000	20470,000000
	635,000000	20470,000000
	635,000000	20470,000000
	645,000000	20465,000000
	665,000000	20470,000000
	675,000000	20475,000000
	685,000000	20475,000000
	700,000000	20470,000000
	715,000000	20465,000000
	725,000000	20460,000000
	730,000000	20465,000000
	730,000000	20470,000000
	740,000000	20465,000000
	755,000000	20470,000000
	765,000000	20475,000000
	765,000000	20475,000000
	775,000000	20470,000000
	785,000000	20470,000000
	785,000000	20470,000000
	780,000000	20465,000000
	780,000000	20470,000000
	780,000000	20470,000000
	785,000000	20465,000000
	795,000000	20470,000000
	785,000000	20475,000000
	780,000000	20470,000000
	775,000000	20470,000000
	755,000000	20470,000000
	740,000000	20470,000000
	735,000000	20465,000000
	735,000000	20465,000000
	730,000000	20465,000000
	725,000000	20470,000000
	720,000000	20470,000000
	720,000000	20470,000000
	720,000000	20470,000000
	720,000000	20475,000000
	720,000000	20475,000000
	725,000000	20475,000000
	725,000000	20470,000000
	715,000000	20465,000000
	700,000000	20465,000000
	685,000000	20465,000000
	665,000000	20465,000000
	635,000000	20470,000000
	600,000000	20470,000000
	575,000000	20475,000000
	575,000000	20470,000000
	580,000000	20470,000000
	555,000000	20470,000000
	535,000000	20470,000000
	515,000000	20470,000000
	495,000000	20470,000000
	465,000000	20470,000000
	455,000000	20465,000000
	445,000000	20465,000000
	435,000000	20470,000000
	425,000000	20470,000000
	415,000000	20470,000000
	410,000000	20470,000000
	415,000000	20475,000000
	415,000000	20470,000000
	435,000000	20470,000000
	455,000000	20465,000000
	455,000000	20465,000000
	435,000000	20470,000000
	405,000000	20465,000000
	400,000000	20465,000000
	410,000000	20470,000000
	405,000000	20470,000000
	400,000000	20465,000000
	405,000000	20470,000000
	410,000000	20475,000000
	400,000000	20475,000000
	380,000000	20470,000000
	355,000000	20460,000000
	340,000000	20465,000000
	345,000000	20470,000000
	355,000000	20470,000000
	355,000000	20470,000000
	375,000000	20475,000000
	390,000000	20475,000000
	395,000000	20470,000000
	410,000000	20470,000000
	415,000000	20465,000000
	425,000000	20470,000000
	420,000000	20475,000000
	420,000000	20475,000000
	415,000000	20470,000000
	425,000000	20470,000000
	425,000000	20470,000000
	420,000000	20470,000000
	400,000000	20470,000000
	370,000000	20475,000000
	360,000000	20470,000000
	365,000000	20475,000000
	360,000000	20475,000000
	360,000000	20480,000000
	355,000000	20485,000000
	360,000000	20475,000000
	375,000000	20470,000000
	380,000000	20470,000000
	370,000000	20470,000000
	350,000000	20470,000000
	335,000000	20475,000000
	320,000000	20470,000000
	275,000000	20475,000000
	245,000000	20470,000000
	210,000000	20470,000000
	150,000000	20470,000000
	80,000000	20470,000000
	35,000000	20470,000000
	-5,000000	20475,000000
	-40,000000	20470,000000
	-45,000000	20470,000000
	-30,000000	20470,000000
	-35,000000	20470,000000
	-35,000000	20470,000000
	-30,000000	20470,000000
	-25,000000	20470,000000
	30,000000	20470,000000
	110,000000	20470,000000
	175,000000	20470,000000
	260,000000	20470,000000
	380,000000	20465,000000
	530,000000	20470,000000
	710,000000	20470,000000
	890,000000	20470,000000
	1045,000000	20465,000000
	1225,000000	20465,000000
	1425,000000	20465,000000
	1615,000000	20465,000000
	1780,000000	20465,000000
	1945,000000	20470,000000
	2110,000000	20470,000000
	2295,000000	20470,000000
	2555,000000	20470,000000
	2830,000000	20460,000000
	3040,000000	20460,000000
	3235,000000	20465,000000
	3345,000000	20470,000000
	3345,000000	20465,000000
	3295,000000	20465,000000
	3205,000000	20470,000000
	3130,000000	20470,000000
	3075,000000	20465,000000
	3015,000000	20465,000000
	2850,000000	20460,000000
	2555,000000	20460,000000
	2240,000000	20465,000000
	1860,000000	20465,000000
	1415,000000	20460,000000
	1065,000000	20465,000000
	815,000000	20465,000000
	605,000000	20460,000000
	420,000000	20460,000000
	300,000000	20465,000000
	240,000000	20465,000000
	205,000000	20465,000000
	205,000000	20465,000000
	185,000000	20465,000000
	135,000000	20465,000000
	70,000000	20470,000000
	10,000000	20465,000000
	-45,000000	20470,000000
	-85,000000	20470,000000
	-130,000000	20470,000000
	-180,000000	20465,000000
	-195,000000	20470,000000
	-200,000000	20475,000000
	-205,000000	20470,000000
	-200,000000	20465,000000
	-180,000000	20465,000000
	-140,000000	20465,000000
	-95,000000	20465,000000
	-60,000000	20470,000000
	-45,000000	20460,000000
	-25,000000	20470,000000
	-10,000000	20470,000000
	5,000000	20470,000000
	15,000000	20470,000000
	35,000000	20465,000000
	80,000000	20470,000000
	120,000000	20470,000000
	170,000000	20470,000000
	225,000000	20470,000000
	265,000000	20470,000000
	300,000000	20465,000000
	320,000000	20465,000000
	310,000000	20465,000000
	305,000000	20470,000000
	320,000000	20470,000000
	335,000000	20465,000000
	345,000000	20470,000000
	345,000000	20470,000000
	340,000000	20470,000000
	345,000000	20465,000000
	350,000000	20465,000000
	350,000000	20465,000000
	340,000000	20465,000000
	345,000000	20460,000000
	345,000000	20465,000000
	345,000000	20460,000000
	340,000000	20460,000000
	320,000000	20465,000000
	300,000000	20465,000000
	300,000000	20465,000000
	315,000000	20470,000000
	325,000000	20470,000000
	335,000000	20470,000000
	350,000000	20470,000000
	355,000000	20475,000000
	355,000000	20465,000000
	355,000000	20465,000000
	345,000000	20465,000000
	340,000000	20460,000000
	355,000000	20460,000000
	365,000000	20470,000000
	365,000000	20475,000000
	355,000000	20475,000000
	355,000000	20475,000000
	345,000000	20470,000000
	340,000000	20470,000000
	355,000000	20475,000000
	355,000000	20470,000000
	340,000000	20470,000000
	310,000000	20470,000000
	315,000000	20475,000000
	335,000000	20475,000000
	355,000000	20475,000000
	375,000000	20470,000000
	355,000000	20475,000000
	335,000000	20475,000000
	320,000000	20475,000000
	320,000000	20470,000000
	310,000000	20470,000000
	285,000000	20470,000000
	290,000000	20470,000000
	295,000000	20465,000000
	290,000000	20470,000000
	290,000000	20475,000000
	320,000000	20475,000000
	350,000000	20470,000000
	360,000000	20465,000000
	365,000000	20470,000000
	355,000000	20470,000000
	355,000000	20470,000000
	355,000000	20470,000000
	350,000000	20470,000000
	355,000000	20465,000000
	370,000000	20465,000000
	380,000000	20470,000000
	380,000000	20470,000000
	375,000000	20475,000000
	390,000000	20475,000000
	400,000000	20475,000000
	405,000000	20470,000000
	420,000000	20470,000000
	430,000000	20470,000000
	425,000000	20470,000000
	410,000000	20465,000000
	410,000000	20465,000000
	420,000000	20465,000000
	420,000000	20465,000000
	405,000000	20470,000000
	390,000000	20470,000000
	390,000000	20470,000000
	405,000000	20470,000000
	410,000000	20470,000000
	410,000000	20470,000000
	415,000000	20470,000000
	425,000000	20470,000000
	435,000000	20470,000000
	445,000000	20465,000000
	455,000000	20470,000000
	460,000000	20470,000000
	460,000000	20470,000000
	480,000000	20470,000000
	480,000000	20470,000000
	485,000000	20470,000000
	490,000000	20470,000000
	500,000000	20470,000000
	485,000000	20470,000000
	475,000000	20470,000000
	485,000000	20475,000000
	495,000000	20475,000000
	515,000000	20470,000000
	525,000000	20470,000000
	530,000000	20475,000000
	525,000000	20470,000000
	530,000000	20470,000000
	545,000000	20470,000000
	575,000000	20470,000000
	575,000000	20470,000000
	560,000000	20475,000000
	535,000000	20475,000000
	530,000000	20475,000000
	540,000000	20470,000000
	530,000000	20470,000000
	525,000000	20470,000000
	530,000000	20475,000000
	545,000000	20475,000000
	565,000000	20470,000000
	595,000000	20475,000000
	620,000000	20470,000000
	615,000000	20470,000000
	615,000000	20470,000000
	625,000000	20470,000000
	630,000000	20465,000000
	625,000000	20465,000000
	620,000000	20470,000000
	620,000000	20470,000000
	635,000000	20470,000000
	640,000000	20470,000000
	640,000000	20470,000000
	640,000000	20470,000000
	665,000000	20465,000000
	680,000000	20460,000000
	690,000000	20465,000000
	695,000000	20460,000000
	705,000000	20470,000000
	720,000000	20470,000000
	735,000000	20460,000000
	740,000000	20465,000000
	735,000000	20465,000000
	740,000000	20465,000000
	745,000000	20470,000000
	750,000000	20470,000000
	750,000000	20475,000000
	740,000000	20470,000000
	755,000000	20470,000000
	780,000000	20470,000000
	790,000000	20470,000000
	790,000000	20470,000000
	790,000000	20470,000000
	790,000000	20470,000000
	800,000000	20470,000000
	800,000000	20470,000000
	800,000000	20470,000000
	790,000000	20470,000000
	790,000000	20475,000000
	775,000000	20485,000000
	765,000000	20475,000000
	755,000000	20470,000000
	750,000000	20470,000000
	765,000000	20465,000000
	785,000000	20470,000000
	800,000000	20470,000000
	795,000000	20475,000000
	800,000000	20475,000000
	800,000000	20470,000000
	790,000000	20470,000000
	785,000000	20470,000000
	775,000000	20470,000000
	785,000000	20470,000000
	795,000000	20470,000000
	785,000000	20475,000000
	770,000000	20475,000000
	755,000000	20475,000000
	750,000000	20470,000000
	740,000000	20465,000000
	740,000000	20470,000000
	745,000000	20475,000000
	750,000000	20470,000000
	755,000000	20475,000000
	770,000000	20475,000000
	780,000000	20475,000000
	775,000000	20475,000000
	775,000000	20475,000000
	775,000000	20470,000000
	765,000000	20470,000000
	760,000000	20475,000000
	755,000000	20470,000000
	755,000000	20465,000000
	765,000000	20470,000000
	755,000000	20470,000000
	755,000000	20470,000000
	750,000000	20465,000000
	735,000000	20465,000000
	720,000000	20470,000000
	720,000000	20465,000000
	710,000000	20465,000000
	700,000000	20470,000000
	720,000000	20470,000000
	725,000000	20465,000000
	705,000000	20465,000000
	685,000000	20460,000000
	675,000000	20455,000000
	675,000000	20460,000000
	675,000000	20460,000000
	675,000000	20460,000000
	670,000000	20465,000000
	660,000000	20460,000000
	655,000000	20460,000000
	640,000000	20470,000000
	630,000000	20470,000000
	615,000000	20465,000000
	605,000000	20465,000000
	610,000000	20470,000000
	605,000000	20470,000000
	610,000000	20465,000000
	610,000000	20460,000000
	590,000000	20460,000000
	585,000000	20460,000000
	580,000000	20465,000000
	575,000000	20470,000000
	580,000000	20470,000000
	575,000000	20465,000000
	570,000000	20465,000000
	560,000000	20465,000000
	550,000000	20465,000000
	540,000000	20465,000000
	520,000000	20470,000000
	515,000000	20470,000000
	500,000000	20465,000000
	480,000000	20460,000000
	480,000000	20465,000000
	480,000000	20465,000000
	465,000000	20470,000000
	450,000000	20470,000000
	440,000000	20470,000000
	435,000000	20465,000000
	435,000000	20470,000000
	440,000000	20470,000000
	435,000000	20470,000000
	430,000000	20475,000000
	415,000000	20475,000000
	410,000000	20470,000000
	420,000000	20470,000000
	410,000000	20475,000000
	400,000000	20475,000000
	385,000000	20475,000000
	385,000000	20485,000000
	395,000000	20480,000000
	380,000000	20475,000000
	355,000000	20470,000000
	335,000000	20475,000000
	320,000000	20475,000000
	305,000000	20470,000000
	305,000000	20470,000000
	310,000000	20475,000000
	310,000000	20475,000000
	325,000000	20475,000000
	350,000000	20475,000000
	365,000000	20475,000000
	385,000000	20475,000000
	375,000000	20470,000000
	340,000000	20470,000000
	340,000000	20470,000000
	325,000000	20475,000000
	300,000000	20475,000000
	285,000000	20475,000000
	275,000000	20475,000000
	275,000000	20470,000000
	280,000000	20470,000000
	280,000000	20475,000000
	275,000000	20475,000000
	285,000000	20470,000000
	295,000000	20465,000000
	305,000000	20470,000000
	310,000000	20470,000000
	310,000000	20470,000000
	310,000000	20475,000000
	305,000000	20475,000000
	305,000000	20475,000000
	300,000000	20480,000000
	280,000000	20475,000000
	275,000000	20475,000000
	275,000000	20475,000000
	275,000000	20470,000000
	275,000000	20470,000000
	270,000000	20470,000000
	260,000000	20470,000000
	255,000000	20465,000000
	255,000000	20465,000000
	260,000000	20465,000000
	270,000000	20470,000000
	265,000000	20465,000000
	270,000000	20460,000000
	270,000000	20465,000000
	255,000000	20460,000000
	250,000000	20460,000000
	245,000000	20470,000000
	245,000000	20470,000000
	255,000000	20475,000000
	260,000000	20470,000000
	245,000000	20470,000000
	225,000000	20470,000000
	225,000000	20470,000000
	230,000000	20470,000000
	205,000000	20470,000000
	195,000000	20465,000000
	195,000000	20465,000000
	210,000000	20465,000000
	215,000000	20465,000000
	215,000000	20470,000000
	220,000000	20470,000000
	220,000000	20475,000000
	210,000000	20470,000000
	195,000000	20470,000000
	200,000000	20460,000000
	205,000000	20460,000000
	195,000000	20465,000000
	185,000000	20470,000000
	190,000000	20465,000000
	195,000000	20465,000000
	190,000000	20460,000000
	180,000000	20465,000000
	185,000000	20470,000000
	185,000000	20470,000000
	175,000000	20470,000000
	165,000000	20465,000000
	150,000000	20465,000000
	155,000000	20465,000000
	165,000000	20465,000000
	150,000000	20460,000000
	135,000000	20465,000000
	135,000000	20460,000000
	135,000000	20460,000000
	130,000000	20460,000000
	135,000000	20460,000000
	145,000000	20460,000000
	155,000000	20460,000000
	145,000000	20460,000000
	150,000000	20460,000000
	150,000000	20470,000000
	130,000000	20465,000000
	115,000000	20460,000000
	110,000000	20460,000000
	100,000000	20460,000000
	95,000000	20465,000000
	80,000000	20465,000000
	55,000000	20465,000000
	55,000000	20460,000000
	50,000000	20460,000000
	35,000000	20460,000000
	25,000000	20460,000000
	10,000000	20460,000000
	5,000000	20460,000000
	15,000000	20470,000000
	15,000000	20470,000000
	15,000000	20475,000000
	20,000000	20475,000000
	35,000000	20475,000000
	35,000000	20470,000000
	15,000000	20470,000000
	-10,000000	20475,000000
	-25,000000	20475,000000
	-35,000000	20475,000000
	-55,000000	20470,000000
	-65,000000	20475,000000
	-75,000000	20475,000000
	-75,000000	20475,000000
	-85,000000	20470,000000
	-95,000000	20465,000000
	-105,000000	20465,000000
	-100,000000	20470,000000
	-100,000000	20470,000000
	-110,000000	20470,000000
	-120,000000	20470,000000
	-120,000000	20470,000000
	-130,000000	20470,000000
	-135,000000	20475,000000
	-140,000000	20475,000000
	-140,000000	20470,000000
	-140,000000	20470,000000
	-135,000000	20465,000000
	-145,000000	20470,000000
	-145,000000	20470,000000
	-145,000000	20470,000000
	-140,000000	20470,000000
	-145,000000	20465,000000
	-155,000000	20470,000000
	-165,000000	20470,000000
	-190,000000	20465,000000
	-205,000000	20465,000000
	-225,000000	20465,000000
	-230,000000	20465,000000
	-250,000000	20465,000000
	-275,000000	20470,000000
	-270,000000	20470,000000
	-285,000000	20465,000000
	-305,000000	20465,000000
	-295,000000	20465,000000
	-260,000000	20470,000000
	-255,000000	20470,000000
	-280,000000	20470,000000
	-300,000000	20475,000000
	-295,000000	20470,000000
	-285,000000	20465,000000
	-285,000000	20465,000000
	-295,000000	20465,000000
	-295,000000	20470,000000
	-300,000000	20475,000000
	-295,000000	20470,000000
	-285,000000	20465,000000
	-295,000000	20465,000000
	-315,000000	20460,000000
	-320,000000	20465,000000
	-290,000000	20470,000000
	-275,000000	20470,000000
	-275,000000	20470,000000
	-270,000000	20470,000000
	-285,000000	20470,000000
	-295,000000	20465,000000
	-290,000000	20465,000000
	-285,000000	20460,000000
	-285,000000	20470,000000
	-285,000000	20475,000000
	-285,000000	20470,000000
	-250,000000	20470,000000
	-225,000000	20470,000000
	-205,000000	20470,000000
	-180,000000	20465,000000
	-160,000000	20470,000000
	-160,000000	20470,000000
	-160,000000	20470,000000
	-170,000000	20470,000000
	-175,000000	20475,000000
	-175,000000	20475,000000
	-185,000000	20475,000000
	-220,000000	20470,000000
	-245,000000	20470,000000
	-230,000000	20470,000000
	-180,000000	20470,000000
	-135,000000	20470,000000
	-130,000000	20465,000000
	-130,000000	20465,000000
	-140,000000	20470,000000
	-155,000000	20470,000000
	-160,000000	20470,000000
	-170,000000	20470,000000
	-155,000000	20470,000000
	-140,000000	20465,000000
	-125,000000	20465,000000
	-115,000000	20465,000000
	-105,000000	20470,000000
	-80,000000	20465,000000
	-45,000000	20465,000000
	-45,000000	20470,000000
	-60,000000	20465,000000
	-65,000000	20465,000000
	-60,000000	20465,000000
	-55,000000	20465,000000
	-20,000000	20460,000000
	20,000000	20460,000000
	35,000000	20465,000000
	30,000000	20470,000000
	25,000000	20465,000000
	15,000000	20470,000000
	10,000000	20470,000000
	-5,000000	20475,000000
	15,000000	20470,000000
	20,000000	20470,000000
	5,000000	20470,000000
	-15,000000	20470,000000
	-15,000000	20470,000000
	-5,000000	20470,000000
	-10,000000	20470,000000
	-5,000000	20470,000000
	15,000000	20470,000000
	30,000000	20465,000000
	35,000000	20465,000000
	35,000000	20460,000000
	5,000000	20460,000000
	-55,000000	20460,000000
	-105,000000	20460,000000
	-130,000000	20465,000000
	-150,000000	20470,000000
	-185,000000	20470,000000
	-225,000000	20470,000000
	-265,000000	20470,000000
	-305,000000	20470,000000
	-320,000000	20475,000000
	-315,000000	20475,000000
	-320,000000	20475,000000
	-330,000000	20470,000000
	-340,000000	20470,000000
	-365,000000	20470,000000
	-355,000000	20465,000000
	-330,000000	20460,000000
	-350,000000	20465,000000
	-360,000000	20465,000000
	-355,000000	20470,000000
	-360,000000	20465,000000
	-365,000000	20465,000000
	-375,000000	20460,000000
	-395,000000	20460,000000
	-395,000000	20460,000000
	-395,000000	20465,000000
	-395,000000	20465,000000
	-370,000000	20460,000000
	-360,000000	20465,000000
	-370,000000	20470,000000
	-375,000000	20470,000000
	-365,000000	20475,000000
	-340,000000	20475,000000
	-320,000000	20470,000000
	-305,000000	20470,000000
	-285,000000	20470,000000
	-250,000000	20470,000000
	-220,000000	20470,000000
	-220,000000	20470,000000
	-240,000000	20470,000000
	-255,000000	20465,000000
	-250,000000	20465,000000
	-230,000000	20460,000000
	-225,000000	20465,000000
	-220,000000	20465,000000
	-195,000000	20465,000000
	-195,000000	20470,000000
	-190,000000	20470,000000
	-180,000000	20470,000000
	-170,000000	20470,000000
	-175,000000	20470,000000
	-185,000000	20465,000000
	-190,000000	20470,000000
	-190,000000	20470,000000
	-175,000000	20465,000000
	-145,000000	20465,000000
	-125,000000	20465,000000
	-130,000000	20470,000000
	-120,000000	20465,000000
	-105,000000	20460,000000
	-105,000000	20465,000000
	-105,000000	20465,000000
	-100,000000	20470,000000
	-90,000000	20470,000000
	-90,000000	20470,000000
	-100,000000	20470,000000
	-115,000000	20470,000000
	-110,000000	20470,000000
	-125,000000	20470,000000
	-145,000000	20465,000000
	-185,000000	20460,000000
	-230,000000	20465,000000
	-260,000000	20465,000000
	-310,000000	20465,000000
	-375,000000	20460,000000
	-420,000000	20465,000000
	-430,000000	20465,000000
	-395,000000	20465,000000
	-385,000000	20465,000000
	-390,000000	20465,000000
	-370,000000	20465,000000
	-310,000000	20470,000000
	-250,000000	20470,000000
	-220,000000	20470,000000
	-160,000000	20460,000000
	-65,000000	20460,000000
	15,000000	20465,000000
	95,000000	20470,000000
	245,000000	20465,000000
	435,000000	20470,000000
	625,000000	20475,000000
	810,000000	20470,000000
	995,000000	20470,000000
	1190,000000	20475,000000
	1370,000000	20465,000000
	1525,000000	20465,000000
	1685,000000	20465,000000
	1860,000000	20465,000000
	2065,000000	20465,000000
	2305,000000	20470,000000
	2530,000000	20470,000000
	2730,000000	20465,000000
	2890,000000	20465,000000
	2985,000000	20465,000000
	3010,000000	20465,000000
	2980,000000	20470,000000
	2880,000000	20470,000000
	2775,000000	20470,000000
	2715,000000	20470,000000
	2620,000000	20475,000000
	2390,000000	20475,000000
	2110,000000	20470,000000
	1765,000000	20470,000000
	1315,000000	20470,000000
	915,000000	20470,000000
	635,000000	20470,000000
	435,000000	20470,000000
	270,000000	20470,000000
	160,000000	20465,000000
	130,000000	20465,000000
	145,000000	20465,000000
	150,000000	20465,000000
	170,000000	20470,000000
	145,000000	20475,000000
	85,000000	20475,000000
	45,000000	20470,000000
	-20,000000	20470,000000
	-145,000000	20470,000000
	-235,000000	20475,000000
	-285,000000	20475,000000
	-320,000000	20470,000000
	-360,000000	20470,000000
	-395,000000	20470,000000
	-410,000000	20470,000000
	-395,000000	20470,000000
	-370,000000	20470,000000
	-345,000000	20470,000000
	-315,000000	20475,000000
	-275,000000	20470,000000
	-240,000000	20470,000000
	-215,000000	20475,000000
	-200,000000	20475,000000
	-180,000000	20470,000000
	-160,000000	20470,000000
	-140,000000	20470,000000
	-125,000000	20475,000000
	-115,000000	20475,000000
	-100,000000	20470,000000
	-55,000000	20475,000000
	-15,000000	20475,000000
	5,000000	20480,000000
	45,000000	20475,000000
	80,000000	20475,000000
	85,000000	20470,000000
	95,000000	20470,000000
	95,000000	20470,000000
	100,000000	20470,000000
	85,000000	20470,000000
	115,000000	20465,000000
	140,000000	20465,000000
	150,000000	20475,000000
	140,000000	20470,000000
	95,000000	20470,000000
	85,000000	20475,000000
	105,000000	20475,000000
	115,000000	20475,000000
	145,000000	20470,000000
	180,000000	20465,000000
	185,000000	20470,000000
	175,000000	20470,000000
	165,000000	20470,000000
	140,000000	20465,000000
	110,000000	20470,000000
	140,000000	20465,000000
	180,000000	20460,000000
	215,000000	20465,000000
	220,000000	20470,000000
	190,000000	20470,000000
	185,000000	20465,000000
	180,000000	20460,000000
	160,000000	20465,000000
	125,000000	20465,000000
	110,000000	20470,000000
	130,000000	20470,000000
	185,000000	20465,000000
	240,000000	20465,000000
	255,000000	20465,000000
	220,000000	20470,000000
	200,000000	20470,000000
	210,000000	20470,000000
	220,000000	20470,000000
	230,000000	20465,000000
	225,000000	20465,000000
	200,000000	20465,000000
	175,000000	20465,000000
	165,000000	20470,000000
	195,000000	20470,000000
	230,000000	20465,000000
	215,000000	20460,000000
	165,000000	20470,000000
	150,000000	20470,000000
	155,000000	20470,000000
	175,000000	20475,000000
	200,000000	20470,000000
	195,000000	20465,000000
	205,000000	20465,000000
	240,000000	20460,000000
	215,000000	20465,000000
	185,000000	20470,000000
	165,000000	20470,000000
	185,000000	20470,000000
	235,000000	20465,000000
	295,000000	20465,000000
	350,000000	20460,000000
	355,000000	20465,000000
	325,000000	20465,000000
	345,000000	20465,000000
	360,000000	20465,000000
	340,000000	20470,000000
	335,000000	20470,000000
	330,000000	20465,000000
	320,000000	20465,000000
	320,000000	20460,000000
	320,000000	20455,000000
	290,000000	20455,000000
	280,000000	20455,000000
	290,000000	20460,000000
	320,000000	20465,000000
	320,000000	20470,000000
	295,000000	20460,000000
	275,000000	20455,000000
	285,000000	20455,000000
	320,000000	20455,000000
	305,000000	20455,000000
	300,000000	20455,000000
	305,000000	20460,000000
	325,000000	20455,000000
	330,000000	20460,000000
	340,000000	20460,000000
	320,000000	20460,000000
	335,000000	20460,000000
	350,000000	20460,000000
	380,000000	20460,000000
	350,000000	20460,000000
	310,000000	20455,000000
	335,000000	20455,000000
	365,000000	20455,000000
	350,000000	20450,000000
	305,000000	20450,000000
	320,000000	20455,000000
	335,000000	20460,000000
	370,000000	20455,000000
	410,000000	20455,000000
	400,000000	20455,000000
	400,000000	20455,000000
	430,000000	20455,000000
	460,000000	20460,000000
	480,000000	20460,000000
	465,000000	20455,000000
	445,000000	20460,000000
	445,000000	20460,000000
	420,000000	20455,000000
	405,000000	20455,000000
	385,000000	20455,000000
	380,000000	20455,000000
	355,000000	20460,000000
	370,000000	20460,000000
	400,000000	20450,000000
	405,000000	20455,000000
	410,000000	20455,000000
	405,000000	20450,000000
	380,000000	20450,000000
	405,000000	20455,000000
	420,000000	20455,000000
	465,000000	20455,000000
	515,000000	20450,000000
	515,000000	20450,000000
	540,000000	20450,000000
	580,000000	20450,000000
	570,000000	20455,000000
	540,000000	20455,000000
	535,000000	20455,000000
	545,000000	20455,000000
	570,000000	20460,000000
	595,000000	20455,000000
	605,000000	20450,000000
	605,000000	20450,000000
	560,000000	20450,000000
	500,000000	20450,000000
	515,000000	20455,000000
	530,000000	20450,000000
	535,000000	20450,000000
	505,000000	20450,000000
	480,000000	20450,000000
	435,000000	20450,000000
	440,000000	20450,000000
	480,000000	20450,000000
	515,000000	20450,000000
	515,000000	20450,000000
	515,000000	20455,000000
	510,000000	20450,000000
	515,000000	20455,000000
	530,000000	20450,000000
	535,000000	20455,000000
	560,000000	20450,000000
	600,000000	20455,000000
	655,000000	20455,000000
	720,000000	20450,000000
	740,000000	20450,000000
	725,000000	20450,000000
	675,000000	20450,000000
	690,000000	20445,000000
	730,000000	20440,000000
	705,000000	20445,000000
	685,000000	20440,000000
	695,000000	20440,000000
	740,000000	20445,000000
	790,000000	20445,000000
	780,000000	20440,000000
	740,000000	20440,000000
	675,000000	20440,000000
	630,000000	20440,000000
	595,000000	20445,000000
	560,000000	20450,000000
	545,000000	20450,000000
	545,000000	20450,000000
	585,000000	20450,000000
	605,000000	20450,000000
	630,000000	20440,000000
	665,000000	20445,000000
	670,000000	20445,000000
	700,000000	20445,000000
	715,000000	20445,000000
	730,000000	20445,000000
	800,000000	20445,000000
	820,000000	20445,000000
	750,000000	20445,000000
	740,000000	20440,000000
	740,000000	20445,000000
	735,000000	20450,000000
	760,000000	20450,000000
	770,000000	20455,000000
	725,000000	20450,000000
	650,000000	20450,000000
	605,000000	20450,000000
	610,000000	20445,000000
	620,000000	20445,000000
	630,000000	20450,000000
	640,000000	20450,000000
	625,000000	20450,000000
	615,000000	20450,000000
	630,000000	20450,000000
	640,000000	20455,000000
	615,000000	20455,000000
	585,000000	20450,000000
	585,000000	20450,000000
	560,000000	20455,000000
	520,000000	20455,000000
	530,000000	20455,000000
	550,000000	20455,000000
	515,000000	20450,000000
	500,000000	20455,000000
	540,000000	20455,000000
	525,000000	20455,000000
	485,000000	20450,000000
	480,000000	20450,000000
	475,000000	20450,000000
	445,000000	20450,000000
	420,000000	20450,000000
	425,000000	20450,000000
	420,000000	20450,000000
	395,000000	20450,000000
	375,000000	20450,000000
	390,000000	20450,000000
	430,000000	20445,000000
	430,000000	20440,000000
	400,000000	20440,000000
	415,000000	20445,000000
	400,000000	20445,000000
	400,000000	20450,000000
	340,000000	20445,000000
	325,000000	20450,000000
	305,000000	20445,000000
	310,000000	20450,000000
	335,000000	20455,000000
	380,000000	20445,000000
	390,000000	20445,000000
	390,000000	20450,000000
	430,000000	20450,000000
	425,000000	20445,000000
	410,000000	20445,000000
	445,000000	20445,000000
	480,000000	20445,000000
	445,000000	20450,000000
	380,000000	20455,000000
	335,000000	20455,000000
	320,000000	20455,000000
	320,000000	20450,000000
	325,000000	20450,000000
	350,000000	20445,000000
	360,000000	20450,000000
	385,000000	20450,000000
	410,000000	20450,000000
	425,000000	20455,000000
	380,000000	20455,000000
	345,000000	20450,000000
	335,000000	20450,000000
	365,000000	20450,000000
	405,000000	20450,000000
	425,000000	20450,000000
	425,000000	20450,000000
	435,000000	20450,000000
	435,000000	20450,000000
	440,000000	20450,000000
	450,000000	20450,000000
	410,000000	20450,000000
	350,000000	20450,000000
	315,000000	20450,000000
	290,000000	20450,000000
	285,000000	20450,000000
	290,000000	20455,000000
	300,000000	20450,000000
	320,000000	20450,000000
	355,000000	20450,000000
	370,000000	20455,000000
	365,000000	20460,000000
	355,000000	20460,000000
	360,000000	20455,000000
	375,000000	20455,000000
	365,000000	20455,000000
	335,000000	20455,000000
	320,000000	20460,000000
	310,000000	20460,000000
	295,000000	20455,000000
	310,000000	20455,000000
	320,000000	20455,000000
	320,000000	20455,000000
	320,000000	20455,000000
	355,000000	20455,000000
	375,000000	20455,000000
	385,000000	20465,000000
	410,000000	20465,000000
	375,000000	20460,000000
	340,000000	20455,000000
	335,000000	20455,000000
	345,000000	20460,000000
	350,000000	20460,000000
	355,000000	20460,000000
	350,000000	20460,000000
	355,000000	20460,000000
	360,000000	20460,000000
	335,000000	20460,000000
	345,000000	20460,000000
	350,000000	20465,000000
	335,000000	20465,000000
	345,000000	20465,000000
	345,000000	20465,000000
	340,000000	20465,000000
	310,000000	20465,000000
	280,000000	20460,000000
	275,000000	20455,000000
	325,000000	20455,000000
	325,000000	20460,000000
	305,000000	20460,000000
	315,000000	20465,000000
	350,000000	20465,000000
	365,000000	20465,000000
	365,000000	20465,000000
	375,000000	20460,000000
	400,000000	20460,000000
	415,000000	20460,000000
	435,000000	20465,000000
	425,000000	20460,000000
	390,000000	20460,000000
	375,000000	20450,000000
	390,000000	20455,000000
	400,000000	20450,000000
	400,000000	20455,000000
	385,000000	20465,000000
	375,000000	20470,000000
	375,000000	20460,000000
	370,000000	20460,000000
	340,000000	20460,000000
	320,000000	20460,000000
	310,000000	20455,000000
	305,000000	20455,000000
	310,000000	20455,000000
	330,000000	20460,000000
	345,000000	20455,000000
	355,000000	20455,000000
	360,000000	20455,000000
	370,000000	20455,000000
	380,000000	20460,000000
	390,000000	20465,000000
	400,000000	20460,000000
	405,000000	20460,000000
	430,000000	20465,000000
	450,000000	20460,000000
	485,000000	20460,000000
	485,000000	20460,000000
	485,000000	20465,000000
	480,000000	20470,000000
	490,000000	20470,000000
	490,000000	20470,000000
	470,000000	20470,000000
	460,000000	20470,000000
	475,000000	20465,000000
	455,000000	20465,000000
	450,000000	20470,000000
	465,000000	20465,000000
	455,000000	20470,000000
	435,000000	20470,000000
	420,000000	20460,000000
	415,000000	20460,000000
	435,000000	20470,000000
	435,000000	20470,000000
	425,000000	20470,000000
	400,000000	20470,000000
	405,000000	20475,000000
	390,000000	20470,000000
	395,000000	20470,000000
	445,000000	20470,000000
	465,000000	20465,000000
	470,000000	20460,000000
	450,000000	20470,000000
	455,000000	20475,000000
	495,000000	20470,000000
	530,000000	20470,000000
	560,000000	20465,000000
	545,000000	20465,000000
	515,000000	20470,000000
	515,000000	20475,000000
	560,000000	20470,000000
	560,000000	20470,000000
	530,000000	20470,000000
	535,000000	20470,000000
	550,000000	20470,000000
	550,000000	20470,000000
	540,000000	20470,000000
	510,000000	20470,000000
	495,000000	20470,000000
	475,000000	20475,000000
	450,000000	20475,000000
	435,000000	20475,000000
	420,000000	20470,000000
	400,000000	20470,000000
	370,000000	20470,000000
	340,000000	20470,000000
	340,000000	20470,000000
	350,000000	20465,000000
	355,000000	20470,000000
	355,000000	20470,000000
	365,000000	20470,000000
	370,000000	20470,000000
	365,000000	20475,000000
	355,000000	20470,000000
	355,000000	20470,000000
	320,000000	20470,000000
	265,000000	20475,000000
	230,000000	20475,000000
	215,000000	20475,000000
	185,000000	20475,000000
	145,000000	20475,000000
	110,000000	20475,000000
	100,000000	20475,000000
	70,000000	20480,000000
	85,000000	20475,000000
	95,000000	20475,000000
	80,000000	20475,000000
	60,000000	20475,000000
	50,000000	20470,000000
	55,000000	20475,000000
	70,000000	20475,000000
	60,000000	20475,000000
	45,000000	20475,000000
	50,000000	20475,000000
	80,000000	20475,000000
	80,000000	20470,000000
	65,000000	20470,000000
	60,000000	20470,000000
	80,000000	20475,000000
	65,000000	20475,000000
	35,000000	20475,000000
	-5,000000	20475,000000
	15,000000	20475,000000
	25,000000	20475,000000
	-10,000000	20475,000000
	-60,000000	20475,000000
	-70,000000	20475,000000
	-65,000000	20475,000000
	-70,000000	20480,000000
	-65,000000	20490,000000
	-60,000000	20485,000000
	-45,000000	20475,000000
	-50,000000	20475,000000
	-40,000000	20475,000000
	-20,000000	20480,000000
	-25,000000	20475,000000
	-35,000000	20470,000000
	-50,000000	20475,000000
	-45,000000	20475,000000
	-35,000000	20475,000000
	-15,000000	20475,000000
	-5,000000	20475,000000
	20,000000	20475,000000
	30,000000	20475,000000
	30,000000	20485,000000
	35,000000	20480,000000
	35,000000	20485,000000
	15,000000	20475,000000
	20,000000	20475,000000
	30,000000	20475,000000
	35,000000	20485,000000
	55,000000	20485,000000
	65,000000	20485,000000
	50,000000	20485,000000
	35,000000	20485,000000
	35,000000	20480,000000
	40,000000	20475,000000
	60,000000	20490,000000
	65,000000	20490,000000
	65,000000	20490,000000
	70,000000	20490,000000
	80,000000	20490,000000
	85,000000	20490,000000
	80,000000	20490,000000
	70,000000	20485,000000
	55,000000	20485,000000
	60,000000	20490,000000
	60,000000	20485,000000
	35,000000	20475,000000
	-25,000000	20475,000000
	-95,000000	20485,000000
	-150,000000	20480,000000
	-180,000000	20475,000000
	-205,000000	20475,000000
	-225,000000	20485,000000
	-235,000000	20485,000000
	-255,000000	20490,000000
	-270,000000	20490,000000
	-240,000000	20490,000000
	-185,000000	20485,000000
	-160,000000	20480,000000
	-125,000000	20485,000000
	-35,000000	20490,000000
	95,000000	20490,000000
	240,000000	20490,000000
	400,000000	20495,000000
	590,000000	20490,000000
	745,000000	20485,000000
	900,000000	20490,000000
	1095,000000	20490,000000
	1295,000000	20485,000000
	1480,000000	20490,000000
	1675,000000	20490,000000
	1865,000000	20490,000000
	2055,000000	20490,000000
	2245,000000	20490,000000
	2470,000000	20490,000000
	2725,000000	20485,000000
	2915,000000	20490,000000
	3095,000000	20490,000000
	3210,000000	20490,000000
	3230,000000	20490,000000
	3165,000000	20490,000000
	3095,000000	20485,000000
	3010,000000	20475,000000
	2940,000000	20475,000000
	2875,000000	20485,000000
	2725,000000	20480,000000
	2480,000000	20485,000000
	2140,000000	20480,000000
	1700,000000	20480,000000
	1300,000000	20485,000000
	1000,000000	20485,000000
	775,000000	20475,000000
	610,000000	20475,000000
	510,000000	20475,000000
	465,000000	20485,000000
	470,000000	20490,000000
	490,000000	20490,000000
	505,000000	20485,000000
	510,000000	20485,000000
	510,000000	20490,000000
	465,000000	20495,000000
	385,000000	20490,000000
	305,000000	20485,000000
	240,000000	20485,000000
	180,000000	20475,000000
	115,000000	20480,000000
	55,000000	20475,000000
	15,000000	20480,000000
	-40,000000	20480,000000
	-80,000000	20475,000000
	-130,000000	20470,000000
	-175,000000	20475,000000
	-200,000000	20470,000000
	-195,000000	20475,000000
	-190,000000	20475,000000
	-185,000000	20475,000000
	-170,000000	20475,000000
	-155,000000	20480,000000
	-140,000000	20475,000000
	-120,000000	20475,000000
	-105,000000	20475,000000
	-115,000000	20475,000000
	-105,000000	20470,000000
	-70,000000	20475,000000
	-40,000000	20475,000000
	-15,000000	20475,000000
	15,000000	20475,000000
	50,000000	20470,000000
	85,000000	20475,000000
	125,000000	20475,000000
	155,000000	20475,000000
	175,000000	20475,000000
	180,000000	20475,000000
	160,000000	20475,000000
	150,000000	20475,000000
	140,000000	20475,000000
	135,000000	20470,000000
	120,000000	20470,000000
	105,000000	20470,000000
	100,000000	20475,000000
	105,000000	20475,000000
	95,000000	20475,000000
	85,000000	20475,000000
	100,000000	20475,000000
	120,000000	20470,000000
	110,000000	20470,000000
	105,000000	20470,000000
	115,000000	20470,000000
	105,000000	20475,000000
	85,000000	20475,000000
	80,000000	20475,000000
	80,000000	20475,000000
	95,000000	20470,000000
	110,000000	20475,000000
	115,000000	20470,000000
	110,000000	20470,000000
	115,000000	20465,000000
	135,000000	20470,000000
	140,000000	20470,000000
	145,000000	20470,000000
	135,000000	20470,000000
	150,000000	20475,000000
	155,000000	20470,000000
	150,000000	20470,000000
	165,000000	20470,000000
	190,000000	20470,000000
	195,000000	20470,000000
	215,000000	20470,000000
	210,000000	20470,000000
	190,000000	20470,000000
	175,000000	20470,000000
	160,000000	20475,000000
	160,000000	20475,000000
	160,000000	20470,000000
	170,000000	20470,000000
	170,000000	20475,000000
	145,000000	20475,000000
	135,000000	20475,000000
	150,000000	20470,000000
	160,000000	20475,000000
	145,000000	20475,000000
	145,000000	20475,000000
	140,000000	20475,000000
	135,000000	20475,000000
	135,000000	20475,000000
	155,000000	20475,000000
	175,000000	20475,000000
	190,000000	20475,000000
	190,000000	20470,000000
	195,000000	20470,000000
	185,000000	20470,000000
	175,000000	20475,000000
	165,000000	20475,000000
	165,000000	20475,000000
	165,000000	20470,000000
	170,000000	20475,000000
	185,000000	20480,000000
	200,000000	20475,000000
	205,000000	20475,000000
	190,000000	20475,000000
	180,000000	20475,000000
	190,000000	20475,000000
	195,000000	20470,000000
	205,000000	20470,000000
	225,000000	20470,000000
	225,000000	20470,000000
	225,000000	20470,000000
	220,000000	20465,000000
	220,000000	20465,000000
	215,000000	20475,000000
	210,000000	20475,000000
	220,000000	20475,000000
	230,000000	20470,000000
	240,000000	20465,000000
	225,000000	20470,000000
	190,000000	20475,000000
	190,000000	20475,000000
	205,000000	20475,000000
	220,000000	20480,000000
	225,000000	20485,000000
	230,000000	20475,000000
	225,000000	20475,000000
	230,000000	20475,000000
	250,000000	20475,000000
	255,000000	20475,000000
	260,000000	20470,000000
	265,000000	20475,000000
	265,000000	20475,000000
	265,000000	20475,000000
	250,000000	20475,000000
	230,000000	20475,000000
	240,000000	20475,000000
	255,000000	20475,000000
	270,000000	20470,000000
	285,000000	20470,000000
	295,000000	20470,000000
	295,000000	20470,000000
	295,000000	20475,000000
	290,000000	20475,000000
	295,000000	20475,000000
	295,000000	20470,000000
	300,000000	20470,000000
	310,000000	20470,000000
	310,000000	20470,000000
	320,000000	20470,000000
	325,000000	20470,000000
	325,000000	20470,000000
	330,000000	20470,000000
	345,000000	20475,000000
	335,000000	20475,000000
	330,000000	20470,000000
	355,000000	20470,000000
	375,000000	20470,000000
	365,000000	20475,000000
	370,000000	20470,000000
	365,000000	20470,000000
	360,000000	20475,000000
	360,000000	20470,000000
	360,000000	20470,000000
	365,000000	20475,000000
	380,000000	20475,000000
	390,000000	20470,000000
	380,000000	20470,000000
	380,000000	20475,000000
	390,000000	20475,000000
	400,000000	20470,000000
	400,000000	20470,000000
	420,000000	20475,000000
	430,000000	20470,000000
	405,000000	20470,000000
	400,000000	20470,000000
	405,000000	20470,000000
	410,000000	20470,000000
	420,000000	20470,000000
	435,000000	20470,000000
	435,000000	20465,000000
	450,000000	20470,000000
	455,000000	20470,000000
	455,000000	20470,000000
	460,000000	20470,000000
	470,000000	20470,000000
	470,000000	20470,000000
	470,000000	20470,000000
	465,000000	20470,000000
	465,000000	20470,000000
	465,000000	20470,000000
	480,000000	20470,000000
	500,000000	20470,000000
	505,000000	20475,000000
	485,000000	20475,000000
	475,000000	20475,000000
	470,000000	20475,000000
	480,000000	20475,000000
	485,000000	20475,000000
	480,000000	20475,000000
	470,000000	20475,000000
	470,000000	20475,000000
	470,000000	20475,000000
	480,000000	20470,000000
	475,000000	20470,000000
	470,000000	20470,000000
	465,000000	20470,000000
	460,000000	20475,000000
	460,000000	20470,000000
	455,000000	20470,000000
	455,000000	20465,000000
	455,000000	20470,000000
	455,000000	20470,000000
	455,000000	20470,000000
	450,000000	20475,000000
	450,000000	20475,000000
	455,000000	20475,000000
	455,000000	20475,000000
	435,000000	20470,000000
	420,000000	20475,000000
	435,000000	20475,000000
	445,000000	20475,000000
	450,000000	20475,000000
	435,000000	20475,000000
	420,000000	20470,000000
	405,000000	20470,000000
	385,000000	20470,000000
	380,000000	20470,000000
	375,000000	20475,000000
	385,000000	20480,000000
	380,000000	20485,000000
	370,000000	20485,000000
	370,000000	20490,000000
	355,000000	20490,000000
	330,000000	20475,000000
	310,000000	20475,000000
	320,000000	20480,000000
	315,000000	20475,000000
	310,000000	20475,000000
	320,000000	20485,000000
	320,000000	20485,000000
	300,000000	20475,000000
	290,000000	20475,000000
	285,000000	20470,000000
	275,000000	20470,000000
	260,000000	20475,000000
	260,000000	20475,000000
	250,000000	20480,000000
	245,000000	20470,000000
	240,000000	20470,000000
	240,000000	20465,000000
	225,000000	20470,000000
	220,000000	20475,000000
	210,000000	20470,000000
	195,000000	20470,000000
	200,000000	20470,000000
	200,000000	20470,000000
	195,000000	20475,000000
	165,000000	20475,000000
	160,000000	20475,000000
	165,000000	20475,000000
	160,000000	20470,000000
	140,000000	20475,000000
	135,000000	20475,000000
	140,000000	20475,000000
	145,000000	20475,000000
	160,000000	20470,000000
	165,000000	20470,000000
	155,000000	20470,000000
	160,000000	20470,000000
	170,000000	20470,000000
	160,000000	20470,000000
	150,000000	20470,000000
	160,000000	20475,000000
	135,000000	20475,000000
	90,000000	20470,000000
	80,000000	20475,000000
	80,000000	20470,000000
	95,000000	20470,000000
	105,000000	20475,000000
	115,000000	20470,000000
	110,000000	20465,000000
	105,000000	20470,000000
	85,000000	20470,000000
	80,000000	20480,000000
	95,000000	20480,000000
	105,000000	20475,000000
	100,000000	20470,000000
	110,000000	20475,000000
	130,000000	20470,000000
	135,000000	20470,000000
	135,000000	20470,000000
	130,000000	20465,000000
	145,000000	20470,000000
	160,000000	20470,000000
	150,000000	20470,000000
	130,000000	20470,000000
	115,000000	20470,000000
	100,000000	20470,000000
	100,000000	20465,000000
	120,000000	20470,000000
	125,000000	20470,000000
	125,000000	20470,000000
	150,000000	20475,000000
	145,000000	20475,000000
	135,000000	20485,000000
	130,000000	20475,000000
	130,000000	20485,000000
	120,000000	20475,000000
	125,000000	20475,000000
	140,000000	20475,000000
	150,000000	20475,000000
	150,000000	20475,000000
	145,000000	20475,000000
	160,000000	20470,000000
	180,000000	20470,000000
	180,000000	20470,000000
	180,000000	20475,000000
	170,000000	20475,000000
	155,000000	20475,000000
	145,000000	20475,000000
	145,000000	20470,000000
	155,000000	20465,000000
	170,000000	20460,000000
	185,000000	20465,000000
	185,000000	20470,000000
	185,000000	20460,000000
	180,000000	20470,000000
	175,000000	20470,000000
	170,000000	20470,000000
	160,000000	20460,000000
	160,000000	20460,000000
	165,000000	20465,000000
	175,000000	20470,000000
	175,000000	20470,000000
	180,000000	20470,000000
	185,000000	20470,000000
	185,000000	20470,000000
	170,000000	20475,000000
	170,000000	20470,000000
	185,000000	20465,000000
	200,000000	20470,000000
	215,000000	20460,000000
	220,000000	20465,000000
	215,000000	20470,000000
	210,000000	20470,000000
	195,000000	20465,000000
	185,000000	20465,000000
	175,000000	20470,000000
	190,000000	20470,000000
	195,000000	20470,000000
	205,000000	20470,000000
	220,000000	20465,000000
	240,000000	20470,000000
	250,000000	20470,000000
	255,000000	20465,000000
	240,000000	20465,000000
	240,000000	20465,000000
	245,000000	20470,000000
	255,000000	20470,000000
	255,000000	20465,000000
	240,000000	20465,000000
	250,000000	20470,000000
	255,000000	20470,000000
	260,000000	20475,000000
	260,000000	20475,000000
	250,000000	20470,000000
	245,000000	20470,000000
	250,000000	20475,000000
	245,000000	20475,000000
	240,000000	20475,000000
	230,000000	20475,000000
	225,000000	20475,000000
	225,000000	20470,000000
	225,000000	20470,000000
	240,000000	20475,000000
	205,000000	20470,000000
	185,000000	20470,000000
	190,000000	20470,000000
	195,000000	20470,000000
	185,000000	20470,000000
	160,000000	20465,000000
	160,000000	20470,000000
	160,000000	20470,000000
	175,000000	20465,000000
	175,000000	20470,000000
	160,000000	20475,000000
	140,000000	20475,000000
	120,000000	20475,000000
	110,000000	20470,000000
	120,000000	20470,000000
	120,000000	20475,000000
	120,000000	20475,000000
	125,000000	20475,000000
	125,000000	20470,000000
	130,000000	20470,000000
	130,000000	20475,000000
	145,000000	20480,000000
	165,000000	20475,000000
	175,000000	20475,000000
	185,000000	20480,000000
	180,000000	20480,000000
	180,000000	20475,000000
	185,000000	20475,000000
	195,000000	20475,000000
	215,000000	20480,000000
	220,000000	20475,000000
	215,000000	20475,000000
	205,000000	20475,000000
	205,000000	20470,000000
	210,000000	20470,000000
	210,000000	20470,000000
	195,000000	20475,000000
	190,000000	20475,000000
	170,000000	20475,000000
	160,000000	20470,000000
	140,000000	20475,000000
	135,000000	20470,000000
	140,000000	20475,000000
	165,000000	20475,000000
	175,000000	20470,000000
	180,000000	20475,000000
	195,000000	20480,000000
	220,000000	20475,000000
	240,000000	20470,000000
	240,000000	20470,000000
	245,000000	20470,000000
	265,000000	20470,000000
	280,000000	20465,000000
	305,000000	20470,000000
	325,000000	20465,000000
	340,000000	20465,000000
	340,000000	20470,000000
	355,000000	20470,000000
	380,000000	20470,000000
	410,000000	20470,000000
	420,000000	20470,000000
	425,000000	20470,000000
	435,000000	20470,000000
	440,000000	20460,000000
	440,000000	20460,000000
	435,000000	20460,000000
	435,000000	20465,000000
	435,000000	20470,000000
	445,000000	20470,000000
	450,000000	20475,000000
	445,000000	20470,000000
	445,000000	20470,000000
	450,000000	20475,000000
	455,000000	20475,000000
	450,000000	20470,000000
	440,000000	20470,000000
	440,000000	20465,000000
	445,000000	20470,000000
	460,000000	20470,000000
	480,000000	20475,000000
	485,000000	20475,000000
	485,000000	20475,000000
	470,000000	20475,000000
	465,000000	20470,000000
	460,000000	20470,000000
	455,000000	20470,000000
	435,000000	20470,000000
	420,000000	20470,000000
	395,000000	20465,000000
	385,000000	20470,000000
	375,000000	20470,000000
	355,000000	20470,000000
	335,000000	20470,000000
	335,000000	20465,000000
	340,000000	20470,000000
	310,000000	20475,000000
	285,000000	20475,000000
	285,000000	20480,000000
	295,000000	20475,000000
	295,000000	20470,000000
	275,000000	20470,000000
	260,000000	20465,000000
	255,000000	20465,000000
	255,000000	20470,000000
	255,000000	20470,000000
	260,000000	20470,000000
	260,000000	20470,000000
	255,000000	20470,000000
	250,000000	20475,000000
	250,000000	20470,000000
	250,000000	20465,000000
	250,000000	20465,000000
	240,000000	20470,000000
	240,000000	20470,000000
	245,000000	20470,000000
	240,000000	20470,000000
	245,000000	20465,000000
	245,000000	20460,000000
	240,000000	20465,000000
	240,000000	20470,000000
	250,000000	20465,000000
	245,000000	20465,000000
	240,000000	20465,000000
	245,000000	20465,000000
	240,000000	20465,000000
	230,000000	20465,000000
	240,000000	20470,000000
	230,000000	20465,000000
	225,000000	20470,000000
	240,000000	20470,000000
	240,000000	20470,000000
	225,000000	20470,000000
	230,000000	20470,000000
	240,000000	20470,000000
	240,000000	20470,000000
	225,000000	20465,000000
	215,000000	20470,000000
	200,000000	20470,000000
	195,000000	20470,000000
	205,000000	20470,000000
	215,000000	20470,000000
	220,000000	20470,000000
	215,000000	20470,000000
	195,000000	20470,000000
	190,000000	20475,000000
	195,000000	20475,000000
	195,000000	20475,000000
	205,000000	20475,000000
	205,000000	20470,000000
	200,000000	20475,000000
	210,000000	20475,000000
	205,000000	20470,000000
	195,000000	20465,000000
	185,000000	20470,000000
	160,000000	20475,000000
	135,000000	20475,000000
	100,000000	20470,000000
	50,000000	20470,000000
	-10,000000	20465,000000
	-55,000000	20465,000000
	-100,000000	20470,000000
	-140,000000	20470,000000
	-165,000000	20465,000000
	-170,000000	20470,000000
	-170,000000	20470,000000
	-170,000000	20470,000000
	-165,000000	20475,000000
	-150,000000	20475,000000
	-130,000000	20475,000000
	-90,000000	20475,000000
	-50,000000	20470,000000
	5,000000	20470,000000
	100,000000	20460,000000
	220,000000	20465,000000
	380,000000	20470,000000
	570,000000	20470,000000
	740,000000	20470,000000
	905,000000	20470,000000
	1075,000000	20475,000000
	1255,000000	20470,000000
	1450,000000	20470,000000
	1630,000000	20465,000000
	1795,000000	20465,000000
	1965,000000	20465,000000
	2175,000000	20470,000000
	2435,000000	20470,000000
	2695,000000	20475,000000
	2905,000000	20475,000000
	3060,000000	20470,000000
	3140,000000	20470,000000
	3120,000000	20465,000000
	3070,000000	20460,000000
	2985,000000	20460,000000
	2915,000000	20465,000000
	2880,000000	20470,000000
	2805,000000	20475,000000
	2610,000000	20470,000000
	2335,000000	20470,000000
	2025,000000	20470,000000
	1600,000000	20470,000000
	1195,000000	20465,000000
	895,000000	20465,000000
	675,000000	20470,000000
	480,000000	20470,000000
	340,000000	20475,000000
	290,000000	20475,000000
	270,000000	20475,000000
	265,000000	20475,000000
	250,000000	20475,000000
	210,000000	20470,000000
	160,000000	20470,000000
	105,000000	20470,000000
	45,000000	20475,000000
	-30,000000	20470,000000
	-95,000000	20470,000000
	-155,000000	20475,000000
	-190,000000	20470,000000
	-230,000000	20470,000000
	-270,000000	20465,000000
	-300,000000	20465,000000
	-335,000000	20470,000000
	-355,000000	20465,000000
	-360,000000	20465,000000
	-350,000000	20465,000000
	-320,000000	20465,000000
	-275,000000	20460,000000
	-230,000000	20455,000000
	-205,000000	20460,000000
	-185,000000	20470,000000
	-175,000000	20475,000000
	-160,000000	20475,000000
	-130,000000	20475,000000
	-100,000000	20470,000000
	-75,000000	20470,000000
	-30,000000	20475,000000
	15,000000	20475,000000
	55,000000	20475,000000
	115,000000	20475,000000
	170,000000	20470,000000
	195,000000	20470,000000
	215,000000	20475,000000
	235,000000	20475,000000
	240,000000	20475,000000
	240,000000	20475,000000
	220,000000	20475,000000
	220,000000	20485,000000
	230,000000	20475,000000
	240,000000	20470,000000
	235,000000	20470,000000
	225,000000	20475,000000
	230,000000	20475,000000
	240,000000	20475,000000
	240,000000	20475,000000
	230,000000	20470,000000
	230,000000	20475,000000
	230,000000	20475,000000
	240,000000	20475,000000
	245,000000	20485,000000
	255,000000	20475,000000
	255,000000	20470,000000
	265,000000	20475,000000
	270,000000	20475,000000
	270,000000	20475,000000
	270,000000	20475,000000
	270,000000	20475,000000
	270,000000	20470,000000
	265,000000	20475,000000
	255,000000	20470,000000
	260,000000	20470,000000
	275,000000	20470,000000
	285,000000	20465,000000
	285,000000	20465,000000
	280,000000	20470,000000
	275,000000	20465,000000
	275,000000	20470,000000
	275,000000	20470,000000
	275,000000	20470,000000
	285,000000	20475,000000
	295,000000	20475,000000
	300,000000	20475,000000
	305,000000	20475,000000
	295,000000	20470,000000
	300,000000	20470,000000
	290,000000	20465,000000
	290,000000	20470,000000
	310,000000	20470,000000
	320,000000	20475,000000
	325,000000	20475,000000
	310,000000	20475,000000
	285,000000	20475,000000
	290,000000	20475,000000
	290,000000	20475,000000
	300,000000	20475,000000
	295,000000	20475,000000
	295,000000	20475,000000
	310,000000	20475,000000
	310,000000	20470,000000
	300,000000	20465,000000
	300,000000	20470,000000
	305,000000	20475,000000
	320,000000	20475,000000
	320,000000	20470,000000
	330,000000	20470,000000
	345,000000	20470,000000
	350,000000	20470,000000
	345,000000	20470,000000
	345,000000	20470,000000
	350,000000	20465,000000
	340,000000	20470,000000
	340,000000	20470,000000
	350,000000	20470,000000
	355,000000	20475,000000
	370,000000	20475,000000
	375,000000	20475,000000
	375,000000	20470,000000
	375,000000	20470,000000
	385,000000	20470,000000
	385,000000	20475,000000
	365,000000	20475,000000
	355,000000	20475,000000
	355,000000	20475,000000
	365,000000	20470,000000
	365,000000	20475,000000
	365,000000	20475,000000
	370,000000	20470,000000
	380,000000	20475,000000
	390,000000	20475,000000
	400,000000	20475,000000
	405,000000	20475,000000
	400,000000	20485,000000
	395,000000	20480,000000
	400,000000	20480,000000
	385,000000	20475,000000
	365,000000	20480,000000
	365,000000	20475,000000
	380,000000	20475,000000
	400,000000	20475,000000
	380,000000	20475,000000
	365,000000	20475,000000
	355,000000	20470,000000
	350,000000	20465,000000
	355,000000	20465,000000
	370,000000	20465,000000
	375,000000	20465,000000
	380,000000	20470,000000
	405,000000	20470,000000
	420,000000	20470,000000
	425,000000	20470,000000
	435,000000	20470,000000
	450,000000	20470,000000
	425,000000	20475,000000
	410,000000	20470,000000
	425,000000	20470,000000
	430,000000	20470,000000
	430,000000	20475,000000
	425,000000	20470,000000
	430,000000	20475,000000
	435,000000	20475,000000
	445,000000	20475,000000
	435,000000	20475,000000
	435,000000	20475,000000
	450,000000	20475,000000
	455,000000	20470,000000
	455,000000	20470,000000
	455,000000	20470,000000
	445,000000	20470,000000
	445,000000	20470,000000
	465,000000	20475,000000
	485,000000	20470,000000
	495,000000	20470,000000
	495,000000	20465,000000
	485,000000	20465,000000
	500,000000	20470,000000
	510,000000	20470,000000
	515,000000	20475,000000
	515,000000	20475,000000
	530,000000	20470,000000
	550,000000	20470,000000
	550,000000	20465,000000
	545,000000	20470,000000
	540,000000	20465,000000
	560,000000	20470,000000
	580,000000	20470,000000
	575,000000	20470,000000
	560,000000	20465,000000
	550,000000	20470,000000
	550,000000	20470,000000
	545,000000	20470,000000
	560,000000	20470,000000
	575,000000	20470,000000
	580,000000	20470,000000
	580,000000	20475,000000
	585,000000	20475,000000
	605,000000	20470,000000
	615,000000	20470,000000
	620,000000	20465,000000
	620,000000	20470,000000
	625,000000	20470,000000
	630,000000	20475,000000
	650,000000	20475,000000
	665,000000	20475,000000
	660,000000	20475,000000
	645,000000	20475,000000
	640,000000	20475,000000
	640,000000	20475,000000
	640,000000	20475,000000
	630,000000	20470,000000
	640,000000	20475,000000
	640,000000	20475,000000
	640,000000	20475,000000
	650,000000	20480,000000
	660,000000	20475,000000
	670,000000	20470,000000
	660,000000	20470,000000
	645,000000	20470,000000
	640,000000	20465,000000
	640,000000	20460,000000
	640,000000	20465,000000
	645,000000	20465,000000
	655,000000	20470,000000
	665,000000	20470,000000
	660,000000	20465,000000
	665,000000	20470,000000
	650,000000	20470,000000
	645,000000	20470,000000
	640,000000	20470,000000
	640,000000	20470,000000
	630,000000	20465,000000
	630,000000	20465,000000
	630,000000	20465,000000
	645,000000	20470,000000
	655,000000	20475,000000
	650,000000	20470,000000
	645,000000	20470,000000
	635,000000	20470,000000
	620,000000	20470,000000
	620,000000	20470,000000
	615,000000	20470,000000
	610,000000	20470,000000
	615,000000	20470,000000
	615,000000	20470,000000
	610,000000	20470,000000
	615,000000	20475,000000
	625,000000	20475,000000
	615,000000	20475,000000
	610,000000	20475,000000
	610,000000	20470,000000
	610,000000	20465,000000
	595,000000	20460,000000
	595,000000	20460,000000
	585,000000	20465,000000
	580,000000	20470,000000
	570,000000	20470,000000
	570,000000	20465,000000
	565,000000	20460,000000
	550,000000	20460,000000
	545,000000	20470,000000
	565,000000	20470,000000
	570,000000	20470,000000
	560,000000	20465,000000
	560,000000	20460,000000
	560,000000	20470,000000
	540,000000	20470,000000
	540,000000	20465,000000
	530,000000	20465,000000
	530,000000	20470,000000
	545,000000	20470,000000
	550,000000	20470,000000
	535,000000	20465,000000
	535,000000	20460,000000
	540,000000	20470,000000
	525,000000	20465,000000
	525,000000	20460,000000
	525,000000	20455,000000
	540,000000	20460,000000
	550,000000	20460,000000
	550,000000	20465,000000
	535,000000	20470,000000
	525,000000	20470,000000
	520,000000	20470,000000
	505,000000	20470,000000
	495,000000	20465,000000
	485,000000	20460,000000
	500,000000	20465,000000
	505,000000	20465,000000
	510,000000	20470,000000
	495,000000	20470,000000
	485,000000	20470,000000
	490,000000	20465,000000
	495,000000	20460,000000
	500,000000	20460,000000
	510,000000	20465,000000
	515,000000	20460,000000
	510,000000	20460,000000
	495,000000	20465,000000
	480,000000	20465,000000
	455,000000	20465,000000
	445,000000	20465,000000
	445,000000	20470,000000
	470,000000	20480,000000
	485,000000	20475,000000
	490,000000	20470,000000
	480,000000	20470,000000
	450,000000	20460,000000
	445,000000	20465,000000
	455,000000	20470,000000
	445,000000	20470,000000
	445,000000	20470,000000
	460,000000	20470,000000
	465,000000	20470,000000
	450,000000	20470,000000
	450,000000	20470,000000
	470,000000	20465,000000
	470,000000	20465,000000
	460,000000	20470,000000
	465,000000	20475,000000
	470,000000	20475,000000
	465,000000	20475,000000
	455,000000	20475,000000
	440,000000	20470,000000
	435,000000	20470,000000
	450,000000	20470,000000
	470,000000	20475,000000
	480,000000	20475,000000
	485,000000	20475,000000
	480,000000	20480,000000
	480,000000	20475,000000
	485,000000	20475,000000
	495,000000	20475,000000
	485,000000	20475,000000
	460,000000	20470,000000
	445,000000	20470,000000
	445,000000	20470,000000
	435,000000	20470,000000
	435,000000	20470,000000
	455,000000	20470,000000
	455,000000	20470,000000
	450,000000	20475,000000
	455,000000	20475,000000
	455,000000	20475,000000
	450,000000	20470,000000
	430,000000	20470,000000
	430,000000	20475,000000
	435,000000	20470,000000
	440,000000	20470,000000
	440,000000	20465,000000
	415,000000	20470,000000
	390,000000	20475,000000
	415,000000	20475,000000
	410,000000	20465,000000
	390,000000	20465,000000
	400,000000	20470,000000
	415,000000	20470,000000
	420,000000	20470,000000
	415,000000	20465,000000
	400,000000	20465,000000
	390,000000	20460,000000
	410,000000	20465,000000
	440,000000	20470,000000
	435,000000	20465,000000
	435,000000	20470,000000
	425,000000	20465,000000
	415,000000	20465,000000
	410,000000	20470,000000
	415,000000	20470,000000
	445,000000	20470,000000
	465,000000	20465,000000
	480,000000	20460,000000
	490,000000	20465,000000
	495,000000	20470,000000
	495,000000	20470,000000
	530,000000	20470,000000
	560,000000	20460,000000
	530,000000	20465,000000
	505,000000	20465,000000
	480,000000	20465,000000
	460,000000	20465,000000
	465,000000	20470,000000
	480,000000	20470,000000
	470,000000	20470,000000
	460,000000	20470,000000
	460,000000	20470,000000
	465,000000	20470,000000
	475,000000	20465,000000
	480,000000	20465,000000
	490,000000	20460,000000
	515,000000	20460,000000
	530,000000	20465,000000
	515,000000	20470,000000
	520,000000	20465,000000
	505,000000	20465,000000
	485,000000	20465,000000
	500,000000	20465,000000
	525,000000	20465,000000
	515,000000	20465,000000
	525,000000	20460,000000
	535,000000	20460,000000
	525,000000	20460,000000
	525,000000	20470,000000
	550,000000	20465,000000
	540,000000	20465,000000
	540,000000	20465,000000
	560,000000	20460,000000
	585,000000	20465,000000
	595,000000	20470,000000
	620,000000	20470,000000
	640,000000	20470,000000
	645,000000	20470,000000
	645,000000	20465,000000
	630,000000	20470,000000
	600,000000	20470,000000
	585,000000	20470,000000
	580,000000	20470,000000
	590,000000	20465,000000
	595,000000	20470,000000
	595,000000	20475,000000
	615,000000	20475,000000
	595,000000	20475,000000
	535,000000	20475,000000
	490,000000	20475,000000
	500,000000	20470,000000
	540,000000	20470,000000
	590,000000	20465,000000
	650,000000	20470,000000
	680,000000	20470,000000
	705,000000	20470,000000
	740,000000	20470,000000
	745,000000	20470,000000
	730,000000	20470,000000
	740,000000	20470,000000
	785,000000	20470,000000
	800,000000	20470,000000
	820,000000	20470,000000
	825,000000	20475,000000
	850,000000	20470,000000
	855,000000	20470,000000
	850,000000	20470,000000
	845,000000	20475,000000
	825,000000	20475,000000
	825,000000	20470,000000
	835,000000	20470,000000
	810,000000	20470,000000
	775,000000	20475,000000
	800,000000	20470,000000
	835,000000	20470,000000
	820,000000	20470,000000
	820,000000	20470,000000
	825,000000	20470,000000
	815,000000	20470,000000
	815,000000	20470,000000
	815,000000	20470,000000
	825,000000	20465,000000
	835,000000	20470,000000
	850,000000	20465,000000
	850,000000	20475,000000
	880,000000	20475,000000
	920,000000	20475,000000
	920,000000	20475,000000
	900,000000	20470,000000
	895,000000	20470,000000
	900,000000	20475,000000
	885,000000	20475,000000
	860,000000	20470,000000
	865,000000	20475,000000
	880,000000	20470,000000
	870,000000	20475,000000
	855,000000	20470,000000
	815,000000	20470,000000
	735,000000	20470,000000
	655,000000	20470,000000
	615,000000	20470,000000
	620,000000	20470,000000
	630,000000	20475,000000
	655,000000	20475,000000
	655,000000	20475,000000
	645,000000	20480,000000
	640,000000	20475,000000
	595,000000	20475,000000
	540,000000	20475,000000
	535,000000	20475,000000
	515,000000	20475,000000
	505,000000	20475,000000
	500,000000	20475,000000
	515,000000	20475,000000
	535,000000	20475,000000
	530,000000	20475,000000
	520,000000	20475,000000
	505,000000	20475,000000
	485,000000	20475,000000
	455,000000	20470,000000
	450,000000	20470,000000
	470,000000	20470,000000
	495,000000	20470,000000
	530,000000	20485,000000
	560,000000	20485,000000
	595,000000	20480,000000
	630,000000	20470,000000
	660,000000	20470,000000
	650,000000	20475,000000
	650,000000	20475,000000
	645,000000	20475,000000
	650,000000	20475,000000
	645,000000	20475,000000
	645,000000	20470,000000
	660,000000	20465,000000
	660,000000	20460,000000
	670,000000	20460,000000
	645,000000	20470,000000
	595,000000	20470,000000
	560,000000	20470,000000
	550,000000	20470,000000
	565,000000	20470,000000
	560,000000	20470,000000
	555,000000	20470,000000
	605,000000	20470,000000
	620,000000	20475,000000
	605,000000	20475,000000
	620,000000	20470,000000
	610,000000	20470,000000
	580,000000	20465,000000
	515,000000	20465,000000
	515,000000	20465,000000
	550,000000	20470,000000
	635,000000	20470,000000
	675,000000	20470,000000
	640,000000	20470,000000
	590,000000	20470,000000
	560,000000	20465,000000
	560,000000	20465,000000
	530,000000	20470,000000
	505,000000	20475,000000
	480,000000	20475,000000
	455,000000	20475,000000
	470,000000	20470,000000
	460,000000	20470,000000
	400,000000	20470,000000
	320,000000	20475,000000
	290,000000	20475,000000
	285,000000	20475,000000
	320,000000	20475,000000
	355,000000	20470,000000
	345,000000	20465,000000
	310,000000	20465,000000
	295,000000	20460,000000
	300,000000	20465,000000
	370,000000	20460,000000
	460,000000	20460,000000
	515,000000	20465,000000
	645,000000	20465,000000
	785,000000	20465,000000
	935,000000	20470,000000
	1110,000000	20470,000000
	1275,000000	20460,000000
	1455,000000	20460,000000
	1610,000000	20460,000000
	1760,000000	20460,000000
	1950,000000	20460,000000
	2180,000000	20465,000000
	2370,000000	20465,000000
	2540,000000	20470,000000
	2755,000000	20470,000000
	2975,000000	20465,000000
	3175,000000	20465,000000
	3365,000000	20460,000000
	3530,000000	20460,000000
	3645,000000	20470,000000
	3680,000000	20470,000000
	3610,000000	20460,000000
	3495,000000	20460,000000
	3380,000000	20460,000000
	3310,000000	20465,000000
	3250,000000	20465,000000
	3060,000000	20470,000000
	2740,000000	20465,000000
	2385,000000	20470,000000
	1945,000000	20465,000000
	1455,000000	20460,000000
	1105,000000	20455,000000
	825,000000	20455,000000
	530,000000	20465,000000
	350,000000	20465,000000
	295,000000	20465,000000
	245,000000	20460,000000
	200,000000	20460,000000
	175,000000	20465,000000
	195,000000	20455,000000
	195,000000	20455,000000
	140,000000	20455,000000
	85,000000	20455,000000
	65,000000	20460,000000
	35,000000	20460,000000
	-25,000000	20460,000000
	-100,000000	20465,000000
	-135,000000	20465,000000
	-125,000000	20465,000000
	-110,000000	20465,000000
	-120,000000	20465,000000
	-110,000000	20465,000000
	-95,000000	20465,000000
	-70,000000	20460,000000
	-30,000000	20460,000000
	-5,000000	20455,000000
	40,000000	20460,000000
	80,000000	20455,000000
	80,000000	20455,000000
	70,000000	20450,000000
	65,000000	20455,000000
	85,000000	20470,000000
	140,000000	20470,000000
	195,000000	20465,000000
	215,000000	20465,000000
	205,000000	20460,000000
	240,000000	20465,000000
	270,000000	20465,000000
	325,000000	20470,000000
	385,000000	20470,000000
	380,000000	20465,000000
	335,000000	20465,000000
	310,000000	20465,000000
	285,000000	20460,000000
	280,000000	20460,000000
	270,000000	20460,000000
	260,000000	20455,000000
	255,000000	20460,000000
	310,000000	20455,000000
	320,000000	20455,000000
	260,000000	20455,000000
	275,000000	20460,000000
	285,000000	20465,000000
	285,000000	20470,000000
	320,000000	20470,000000
	335,000000	20465,000000
	335,000000	20460,000000
	325,000000	20460,000000
	325,000000	20465,000000
	320,000000	20465,000000
	330,000000	20465,000000
	350,000000	20460,000000
	335,000000	20460,000000
	320,000000	20465,000000
	355,000000	20465,000000
	380,000000	20470,000000
	380,000000	20465,000000
	390,000000	20465,000000
	415,000000	20470,000000
	480,000000	20470,000000
	535,000000	20465,000000
	535,000000	20460,000000
	540,000000	20465,000000
	470,000000	20465,000000
	390,000000	20460,000000
	340,000000	20460,000000
	280,000000	20460,000000
	275,000000	20460,000000
	260,000000	20460,000000
	220,000000	20465,000000
	210,000000	20465,000000
	170,000000	20460,000000
	165,000000	20460,000000
	195,000000	20460,000000
	265,000000	20465,000000
	320,000000	20460,000000
	320,000000	20460,000000
	295,000000	20460,000000
	275,000000	20460,000000
	320,000000	20460,000000
	345,000000	20460,000000
	365,000000	20455,000000
	390,000000	20460,000000
	390,000000	20455,000000
	420,000000	20450,000000
	425,000000	20450,000000
	450,000000	20455,000000
	465,000000	20460,000000
	450,000000	20460,000000
	445,000000	20465,000000
	480,000000	20470,000000
	465,000000	20465,000000
	385,000000	20460,000000
	345,000000	20455,000000
	345,000000	20455,000000
	355,000000	20455,000000
	410,000000	20455,000000
	455,000000	20450,000000
	415,000000	20455,000000
	380,000000	20460,000000
	355,000000	20460,000000
	325,000000	20460,000000
	295,000000	20455,000000
	275,000000	20460,000000
	270,000000	20455,000000
	265,000000	20455,000000
	260,000000	20450,000000
	255,000000	20450,000000
	275,000000	20460,000000
	295,000000	20460,000000
	295,000000	20465,000000
	310,000000	20460,000000
	300,000000	20460,000000
	310,000000	20460,000000
	350,000000	20460,000000
	395,000000	20455,000000
	420,000000	20450,000000
	455,000000	20455,000000
	455,000000	20460,000000
	435,000000	20460,000000
	440,000000	20460,000000
	450,000000	20460,000000
	465,000000	20460,000000
	465,000000	20455,000000
	450,000000	20455,000000
	435,000000	20465,000000
	455,000000	20465,000000
	480,000000	20470,000000
	480,000000	20470,000000
	480,000000	20465,000000
	480,000000	20465,000000
	475,000000	20465,000000
	495,000000	20460,000000
	530,000000	20455,000000
	545,000000	20460,000000
	500,000000	20460,000000
	480,000000	20460,000000
	450,000000	20460,000000
	420,000000	20455,000000
	430,000000	20455,000000
	445,000000	20455,000000
	430,000000	20450,000000
	435,000000	20455,000000
	465,000000	20455,000000
	500,000000	20455,000000
	520,000000	20460,000000
	565,000000	20465,000000
	610,000000	20465,000000
	620,000000	20465,000000
	665,000000	20460,000000
	690,000000	20460,000000
	670,000000	20460,000000
	660,000000	20465,000000
	700,000000	20460,000000
	725,000000	20465,000000
	750,000000	20470,000000
	740,000000	20465,000000
	725,000000	20465,000000
	725,000000	20470,000000
	700,000000	20475,000000
	655,000000	20470,000000
	675,000000	20470,000000
	710,000000	20465,000000
	710,000000	20470,000000
	690,000000	20470,000000
	690,000000	20465,000000
	690,000000	20460,000000
	655,000000	20465,000000
	665,000000	20470,000000
	685,000000	20475,000000
	690,000000	20475,000000
	720,000000	20475,000000
	775,000000	20470,000000
	765,000000	20465,000000
	735,000000	20460,000000
	740,000000	20460,000000
	750,000000	20460,000000
	745,000000	20465,000000
	760,000000	20465,000000
	760,000000	20460,000000
	780,000000	20455,000000
	795,000000	20455,000000
	765,000000	20460,000000
	695,000000	20455,000000
	650,000000	20460,000000
	640,000000	20470,000000
	615,000000	20470,000000
	615,000000	20460,000000
	640,000000	20460,000000
	695,000000	20465,000000
	700,000000	20460,000000
	685,000000	20455,000000
	690,000000	20460,000000
	700,000000	20460,000000
	710,000000	20460,000000
	740,000000	20460,000000
	755,000000	20465,000000
	735,000000	20460,000000
	710,000000	20460,000000
	685,000000	20465,000000
	675,000000	20460,000000
	655,000000	20465,000000
	650,000000	20460,000000
	645,000000	20460,000000
	610,000000	20455,000000
	575,000000	20460,000000
	585,000000	20465,000000
	620,000000	20470,000000
	650,000000	20465,000000
	670,000000	20465,000000
	675,000000	20465,000000
	695,000000	20465,000000
	675,000000	20470,000000
	625,000000	20465,000000
	580,000000	20460,000000
	595,000000	20470,000000
	620,000000	20470,000000
	645,000000	20465,000000
	645,000000	20465,000000
	595,000000	20465,000000
	550,000000	20465,000000
	535,000000	20470,000000
	560,000000	20475,000000
	570,000000	20470,000000
	600,000000	20470,000000
	605,000000	20465,000000
	600,000000	20465,000000
	575,000000	20465,000000
	565,000000	20470,000000
	580,000000	20475,000000
	580,000000	20470,000000
	545,000000	20470,000000
	530,000000	20475,000000
	525,000000	20475,000000
	540,000000	20470,000000
	560,000000	20475,000000
	560,000000	20470,000000
	580,000000	20470,000000
	595,000000	20470,000000
	595,000000	20470,000000
	595,000000	20470,000000
	605,000000	20470,000000
	605,000000	20465,000000
	620,000000	20465,000000
	625,000000	20465,000000
	605,000000	20470,000000
	560,000000	20465,000000
	535,000000	20460,000000
	560,000000	20465,000000
	545,000000	20470,000000
	515,000000	20470,000000
	510,000000	20470,000000
	480,000000	20470,000000
	470,000000	20465,000000
	480,000000	20470,000000
	480,000000	20475,000000
	460,000000	20475,000000
	470,000000	20470,000000
	490,000000	20470,000000
	490,000000	20465,000000
	465,000000	20465,000000
	430,000000	20465,000000
	410,000000	20470,000000
	405,000000	20470,000000
	435,000000	20470,000000
	455,000000	20470,000000
	470,000000	20465,000000
	485,000000	20460,000000
	480,000000	20465,000000
	480,000000	20470,000000
	465,000000	20470,000000
	435,000000	20470,000000
	450,000000	20470,000000
	480,000000	20470,000000
	490,000000	20470,000000
	490,000000	20475,000000
	495,000000	20475,000000
	470,000000	20470,000000
	445,000000	20470,000000
	435,000000	20475,000000
	435,000000	20470,000000
	425,000000	20470,000000
	415,000000	20470,000000
	415,000000	20475,000000
	410,000000	20475,000000
	395,000000	20470,000000
	400,000000	20470,000000
	405,000000	20475,000000
	405,000000	20475,000000
	385,000000	20475,000000
	370,000000	20475,000000
	365,000000	20475,000000
	385,000000	20475,000000
	400,000000	20475,000000
	405,000000	20485,000000
	400,000000	20485,000000
	385,000000	20475,000000
	385,000000	20470,000000
	400,000000	20465,000000
	405,000000	20460,000000
	390,000000	20470,000000
	345,000000	20470,000000
	330,000000	20465,000000
	335,000000	20465,000000
	345,000000	20470,000000
	360,000000	20470,000000
	365,000000	20465,000000
	355,000000	20470,000000
	365,000000	20475,000000
	375,000000	20475,000000
	380,000000	20470,000000
	370,000000	20470,000000
	365,000000	20475,000000
	365,000000	20470,000000
	345,000000	20475,000000
	325,000000	20475,000000
	330,000000	20475,000000
	330,000000	20470,000000
	350,000000	20465,000000
	365,000000	20465,000000
	355,000000	20465,000000
	360,000000	20465,000000
	380,000000	20470,000000
	405,000000	20470,000000
	400,000000	20470,000000
	380,000000	20470,000000
	400,000000	20470,000000
	425,000000	20465,000000
	425,000000	20460,000000
	420,000000	20470,000000
	430,000000	20475,000000
	445,000000	20470,000000
	450,000000	20475,000000
	450,000000	20480,000000
	460,000000	20480,000000
	470,000000	20475,000000
	485,000000	20475,000000
	465,000000	20470,000000
	420,000000	20475,000000
	400,000000	20475,000000
	380,000000	20485,000000
	385,000000	20480,000000
	415,000000	20475,000000
	435,000000	20485,000000
	415,000000	20490,000000
	405,000000	20485,000000
	410,000000	20480,000000
	415,000000	20475,000000
	415,000000	20475,000000
	425,000000	20475,000000
	430,000000	20485,000000
	455,000000	20485,000000
	505,000000	20475,000000
	560,000000	20475,000000
	570,000000	20485,000000
	540,000000	20485,000000
	530,000000	20475,000000
	545,000000	20485,000000
	560,000000	20485,000000
	595,000000	20475,000000
	615,000000	20475,000000
	620,000000	20475,000000
	610,000000	20475,000000
	595,000000	20475,000000
	605,000000	20475,000000
	615,000000	20475,000000
	640,000000	20475,000000
	645,000000	20475,000000
	625,000000	20470,000000
	615,000000	20475,000000
	595,000000	20485,000000
	570,000000	20485,000000
	565,000000	20475,000000
	580,000000	20480,000000
	595,000000	20485,000000
	620,000000	20480,000000
	625,000000	20475,000000
	635,000000	20475,000000
	630,000000	20475,000000
	620,000000	20475,000000
	620,000000	20475,000000
	630,000000	20480,000000
	660,000000	20475,000000
	675,000000	20475,000000
	680,000000	20475,000000
	680,000000	20475,000000
	675,000000	20470,000000
	690,000000	20470,000000
	680,000000	20470,000000
	665,000000	20470,000000
	670,000000	20470,000000
	675,000000	20475,000000
	670,000000	20475,000000
	680,000000	20475,000000
	685,000000	20475,000000
	700,000000	20480,000000
	705,000000	20475,000000
	710,000000	20475,000000
	675,000000	20475,000000
	645,000000	20470,000000
	655,000000	20470,000000
	660,000000	20475,000000
	655,000000	20475,000000
	625,000000	20475,000000
	615,000000	20480,000000
	615,000000	20480,000000
	610,000000	20480,000000
	615,000000	20475,000000
	625,000000	20475,000000
	615,000000	20475,000000
	615,000000	20470,000000
	630,000000	20475,000000
	620,000000	20475,000000
	595,000000	20475,000000
	560,000000	20475,000000
	535,000000	20475,000000
	530,000000	20475,000000
	515,000000	20475,000000
	490,000000	20470,000000
	480,000000	20475,000000
	465,000000	20470,000000
	435,000000	20475,000000
	405,000000	20475,000000
	375,000000	20475,000000
	365,000000	20475,000000
	355,000000	20485,000000
	345,000000	20485,000000
	350,000000	20490,000000
	345,000000	20485,000000
	330,000000	20480,000000
	300,000000	20475,000000
	285,000000	20475,000000
	275,000000	20485,000000
	270,000000	20490,000000
	260,000000	20485,000000
	260,000000	20480,000000
	260,000000	20480,000000
	260,000000	20485,000000
	255,000000	20475,000000
	240,000000	20475,000000
	210,000000	20475,000000
	200,000000	20485,000000
	195,000000	20490,000000
	195,000000	20490,000000
	190,000000	20485,000000
	195,000000	20480,000000
	195,000000	20485,000000
	195,000000	20490,000000
	180,000000	20485,000000
	175,000000	20485,000000
	170,000000	20485,000000
	165,000000	20485,000000
	160,000000	20475,000000
	160,000000	20485,000000
	170,000000	20475,000000
	165,000000	20480,000000
	165,000000	20480,000000
	165,000000	20485,000000
	160,000000	20490,000000
	140,000000	20485,000000
	130,000000	20485,000000
	140,000000	20490,000000
	145,000000	20490,000000
	155,000000	20475,000000
	160,000000	20470,000000
	155,000000	20470,000000
	160,000000	20470,000000
	175,000000	20485,000000
	175,000000	20485,000000
	160,000000	20485,000000
	165,000000	20485,000000
	170,000000	20475,000000
	180,000000	20475,000000
	190,000000	20475,000000
	205,000000	20470,000000
	195,000000	20475,000000
	190,000000	20475,000000
	185,000000	20475,000000
	165,000000	20475,000000
	170,000000	20480,000000
	190,000000	20485,000000
	175,000000	20485,000000
	170,000000	20480,000000
	175,000000	20475,000000
	175,000000	20475,000000
	160,000000	20485,000000
	135,000000	20485,000000
	120,000000	20490,000000
	115,000000	20475,000000
	100,000000	20475,000000
	60,000000	20475,000000
	10,000000	20475,000000
	-45,000000	20475,000000
	-80,000000	20475,000000
	-95,000000	20475,000000
	-110,000000	20475,000000
	-125,000000	20475,000000
	-145,000000	20475,000000
	-150,000000	20475,000000
	-120,000000	20475,000000
	-70,000000	20475,000000
	-45,000000	20475,000000
	-15,000000	20475,000000
	45,000000	20475,000000
	140,000000	20475,000000
	255,000000	20475,000000
	390,000000	20470,000000
	550,000000	20470,000000
	725,000000	20470,000000
	890,000000	20470,000000
	1065,000000	20470,000000
	1245,000000	20475,000000
	1435,000000	20475,000000
	1640,000000	20475,000000
	1825,000000	20475,000000
	2000,000000	20475,000000
	2165,000000	20470,000000
	2390,000000	20470,000000
	2660,000000	20470,000000
	2885,000000	20475,000000
	3065,000000	20475,000000
	3190,000000	20475,000000
	3255,000000	20475,000000
	3220,000000	20475,000000
	3155,000000	20475,000000
	3055,000000	20485,000000
	2990,000000	20485,000000
	2935,000000	20475,000000
	2825,000000	20475,000000
	2585,000000	20475,000000
	2250,000000	20485,000000
	1830,000000	20485,000000
	1375,000000	20475,000000
	1025,000000	20475,000000
	750,000000	20475,000000
	535,000000	20475,000000
	360,000000	20485,000000
	275,000000	20485,000000
	245,000000	20485,000000
	220,000000	20475,000000
	210,000000	20475,000000
	195,000000	20485,000000
	160,000000	20485,000000
	90,000000	20475,000000
	25,000000	20475,000000
	-40,000000	20475,000000
	-95,000000	20475,000000
	-150,000000	20475,000000
	-185,000000	20475,000000
	-245,000000	20485,000000
	-305,000000	20485,000000
	-350,000000	20475,000000
	-385,000000	20485,000000
	-415,000000	20485,000000
	-430,000000	20475,000000
	-415,000000	20475,000000
	-415,000000	20475,000000
	-425,000000	20470,000000
	-405,000000	20470,000000
	-355,000000	20470,000000
	-315,000000	20470,000000
	-290,000000	20475,000000
	-270,000000	20470,000000
	-255,000000	20470,000000
	-220,000000	20475,000000
	-185,000000	20475,000000
	-145,000000	20475,000000
	-100,000000	20470,000000
	-70,000000	20475,000000
	-35,000000	20475,000000
	25,000000	20475,000000
	80,000000	20475,000000
	110,000000	20475,000000
	130,000000	20475,000000
	135,000000	20475,000000
	140,000000	20465,000000
	150,000000	20470,000000
	160,000000	20470,000000
	160,000000	20475,000000
	150,000000	20470,000000
	160,000000	20470,000000
	160,000000	20470,000000
	170,000000	20470,000000
	175,000000	20470,000000
	185,000000	20475,000000
	190,000000	20475,000000
	195,000000	20475,000000
	205,000000	20475,000000
	215,000000	20470,000000
	205,000000	20470,000000
	190,000000	20475,000000
	190,000000	20475,000000
	195,000000	20470,000000
	205,000000	20470,000000
	215,000000	20470,000000
	230,000000	20470,000000
	230,000000	20470,000000
	220,000000	20470,000000
	215,000000	20465,000000
	215,000000	20465,000000
	205,000000	20470,000000
	195,000000	20475,000000
	185,000000	20470,000000
	180,000000	20470,000000
	195,000000	20470,000000
	210,000000	20470,000000
	215,000000	20475,000000
	230,000000	20475,000000
	220,000000	20475,000000
	200,000000	20475,000000
	205,000000	20475,000000
	205,000000	20470,000000
	210,000000	20470,000000
	220,000000	20470,000000
	205,000000	20475,000000
	200,000000	20475,000000
	200,000000	20470,000000
	195,000000	20465,000000
	180,000000	20470,000000
	165,000000	20470,000000
	160,000000	20470,000000
	160,000000	20470,000000
	155,000000	20465,000000
	150,000000	20470,000000
	140,000000	20465,000000
	135,000000	20465,000000
	140,000000	20470,000000
	135,000000	20465,000000
	125,000000	20470,000000
	110,000000	20475,000000
	110,000000	20470,000000
	120,000000	20470,000000
	130,000000	20470,000000
	120,000000	20470,000000
	120,000000	20465,000000
	135,000000	20465,000000
	135,000000	20465,000000
	120,000000	20465,000000
	125,000000	20465,000000
	145,000000	20470,000000
	145,000000	20465,000000
	135,000000	20465,000000
	120,000000	20465,000000
	110,000000	20470,000000
	115,000000	20475,000000
	135,000000	20475,000000
	150,000000	20475,000000
	160,000000	20470,000000
	165,000000	20470,000000
	160,000000	20470,000000
	170,000000	20470,000000
	190,000000	20470,000000
	190,000000	20470,000000
	175,000000	20470,000000
	160,000000	20475,000000
	160,000000	20475,000000
	170,000000	20470,000000
	175,000000	20475,000000
	185,000000	20465,000000
	190,000000	20465,000000
	190,000000	20470,000000
	180,000000	20470,000000
	170,000000	20465,000000
	180,000000	20465,000000
	210,000000	20470,000000
	225,000000	20470,000000
	240,000000	20470,000000
	240,000000	20470,000000
	220,000000	20470,000000
	215,000000	20470,000000
	230,000000	20470,000000
	230,000000	20465,000000
	230,000000	20470,000000
	240,000000	20470,000000
	240,000000	20470,000000
	250,000000	20470,000000
	255,000000	20465,000000
	230,000000	20470,000000
	215,000000	20465,000000
	230,000000	20465,000000
	245,000000	20470,000000
	250,000000	20465,000000
	240,000000	20470,000000
	250,000000	20470,000000
	255,000000	20470,000000
	260,000000	20470,000000
	270,000000	20470,000000
	270,000000	20465,000000
	260,000000	20460,000000
	270,000000	20465,000000
	295,000000	20470,000000
	300,000000	20470,000000
	295,000000	20465,000000
	305,000000	20470,000000
	310,000000	20460,000000
	320,000000	20465,000000
	325,000000	20470,000000
	335,000000	20475,000000
	340,000000	20480,000000
	335,000000	20470,000000
	335,000000	20465,000000
	350,000000	20465,000000
	345,000000	20470,000000
	340,000000	20470,000000
	340,000000	20470,000000
	355,000000	20470,000000
	365,000000	20475,000000
	370,000000	20470,000000
	365,000000	20470,000000
	380,000000	20470,000000
	390,000000	20470,000000
	395,000000	20475,000000
	390,000000	20470,000000
	375,000000	20475,000000
	375,000000	20475,000000
	370,000000	20475,000000
	365,000000	20475,000000
	355,000000	20470,000000
	355,000000	20470,000000
	365,000000	20470,000000
	370,000000	20475,000000
	380,000000	20470,000000
	395,000000	20470,000000
	400,000000	20475,000000
	400,000000	20475,000000
	385,000000	20470,000000
	375,000000	20465,000000
	385,000000	20465,000000
	390,000000	20465,000000
	390,000000	20465,000000
	395,000000	20470,000000
	400,000000	20470,000000
	405,000000	20470,000000
	410,000000	20465,000000
	425,000000	20460,000000
	435,000000	20470,000000
	425,000000	20470,000000
	420,000000	20470,000000
	425,000000	20470,000000
	430,000000	20475,000000
	430,000000	20475,000000
	440,000000	20470,000000
	455,000000	20465,000000
	455,000000	20465,000000
	445,000000	20465,000000
	440,000000	20465,000000
	425,000000	20470,000000
	410,000000	20470,000000
	400,000000	20475,000000
	415,000000	20475,000000
	435,000000	20470,000000
	440,000000	20475,000000
	430,000000	20475,000000
	420,000000	20475,000000
	430,000000	20475,000000
	430,000000	20470,000000
	425,000000	20470,000000
	425,000000	20465,000000
	415,000000	20465,000000
	405,000000	20470,000000
	420,000000	20465,000000
	435,000000	20465,000000
	425,000000	20465,000000
	420,000000	20470,000000
	420,000000	20470,000000
	415,000000	20465,000000
	415,000000	20470,000000
	415,000000	20475,000000
	420,000000	20475,000000
	415,000000	20475,000000
	415,000000	20475,000000
	420,000000	20475,000000
	425,000000	20475,000000
	420,000000	20470,000000
	410,000000	20475,000000
	415,000000	20480,000000
	415,000000	20485,000000
	415,000000	20475,000000
	410,000000	20475,000000
	400,000000	20470,000000
	390,000000	20470,000000
	400,000000	20470,000000
	405,000000	20475,000000
	390,000000	20475,000000
	355,000000	20475,000000
	345,000000	20470,000000
	355,000000	20475,000000
	365,000000	20480,000000
	365,000000	20485,000000
	370,000000	20490,000000
	360,000000	20485,000000
	340,000000	20475,000000
	335,000000	20475,000000
	335,000000	20485,000000
	320,000000	20485,000000
	300,000000	20475,000000
	295,000000	20470,000000
	310,000000	20470,000000
	335,000000	20470,000000
	340,000000	20470,000000
	330,000000	20470,000000
	325,000000	20475,000000
	325,000000	20475,000000
	320,000000	20475,000000
	325,000000	20475,000000
	335,000000	20480,000000
	355,000000	20480,000000
	380,000000	20475,000000
	370,000000	20475,000000
	355,000000	20470,000000
	355,000000	20475,000000
	350,000000	20480,000000
	340,000000	20480,000000
	345,000000	20485,000000
	355,000000	20480,000000
	360,000000	20475,000000
	365,000000	20475,000000
	355,000000	20475,000000
	360,000000	20475,000000
	370,000000	20475,000000
	355,000000	20475,000000
	355,000000	20475,000000
	355,000000	20475,000000
	355,000000	20475,000000
	360,000000	20475,000000
	375,000000	20470,000000
	380,000000	20475,000000
	380,000000	20475,000000
	380,000000	20475,000000
	365,000000	20475,000000
	360,000000	20470,000000
	355,000000	20470,000000
	340,000000	20475,000000
	345,000000	20475,000000
	340,000000	20470,000000
	340,000000	20465,000000
	350,000000	20470,000000
	330,000000	20475,000000
	310,000000	20470,000000
	320,000000	20465,000000
	325,000000	20470,000000
	320,000000	20470,000000
	320,000000	20470,000000
	335,000000	20470,000000
	340,000000	20465,000000
	330,000000	20470,000000
	330,000000	20470,000000
	340,000000	20470,000000
	345,000000	20470,000000
	325,000000	20470,000000
	305,000000	20465,000000
	320,000000	20470,000000
	330,000000	20475,000000
	320,000000	20470,000000
	330,000000	20470,000000
	325,000000	20470,000000
	330,000000	20465,000000
	330,000000	20465,000000
	335,000000	20470,000000
	345,000000	20475,000000
	355,000000	20480,000000
	355,000000	20485,000000
	360,000000	20485,000000
	360,000000	20475,000000
	350,000000	20475,000000
	345,000000	20475,000000
	340,000000	20470,000000
	345,000000	20470,000000
	355,000000	20475,000000
	365,000000	20470,000000
	365,000000	20470,000000
	355,000000	20470,000000
	360,000000	20470,000000
	360,000000	20470,000000
	355,000000	20470,000000
	350,000000	20470,000000
	365,000000	20470,000000
	370,000000	20475,000000
	375,000000	20475,000000
	380,000000	20470,000000
	370,000000	20470,000000
	380,000000	20475,000000
	400,000000	20475,000000
	415,000000	20470,000000
	430,000000	20465,000000
	425,000000	20465,000000
	385,000000	20470,000000
	345,000000	20470,000000
	355,000000	20470,000000
	380,000000	20470,000000
	410,000000	20470,000000
	420,000000	20470,000000
	390,000000	20470,000000
	360,000000	20470,000000
	370,000000	20470,000000
	400,000000	20470,000000
	415,000000	20470,000000
	410,000000	20470,000000
	400,000000	20470,000000
	410,000000	20470,000000
	410,000000	20460,000000
	425,000000	20460,000000
	425,000000	20465,000000
	425,000000	20470,000000
	430,000000	20470,000000
	440,000000	20470,000000
	430,000000	20470,000000
	435,000000	20465,000000
	435,000000	20470,000000
	435,000000	20470,000000
	440,000000	20470,000000
	445,000000	20470,000000
	440,000000	20470,000000
	430,000000	20470,000000
	420,000000	20470,000000
	415,000000	20470,000000
	410,000000	20475,000000
	410,000000	20475,000000
	405,000000	20475,000000
	410,000000	20475,000000
	415,000000	20470,000000
	430,000000	20470,000000
	430,000000	20475,000000
	440,000000	20475,000000
	460,000000	20475,000000
	470,000000	20470,000000
	470,000000	20465,000000
	465,000000	20465,000000
	480,000000	20465,000000
	500,000000	20465,000000
	520,000000	20465,000000
	540,000000	20470,000000
	560,000000	20470,000000
	560,000000	20470,000000
	560,000000	20470,000000
	550,000000	20470,000000
	540,000000	20470,000000
	535,000000	20470,000000
	545,000000	20470,000000
	550,000000	20470,000000
	535,000000	20475,000000
	535,000000	20470,000000
	535,000000	20470,000000
	540,000000	20470,000000
	545,000000	20470,000000
	555,000000	20470,000000
	570,000000	20470,000000
	590,000000	20470,000000
	595,000000	20470,000000
	585,000000	20470,000000
	590,000000	20470,000000
	605,000000	20465,000000
	615,000000	20460,000000
	620,000000	20470,000000
	620,000000	20470,000000
	615,000000	20475,000000
	620,000000	20470,000000
	640,000000	20470,000000
	645,000000	20465,000000
	645,000000	20470,000000
	650,000000	20470,000000
	660,000000	20470,000000
	670,000000	20470,000000
	675,000000	20475,000000
	680,000000	20475,000000
	675,000000	20475,000000
	685,000000	20475,000000
	690,000000	20475,000000
	695,000000	20470,000000
	710,000000	20470,000000
	700,000000	20465,000000
	680,000000	20470,000000
	675,000000	20470,000000
	685,000000	20470,000000
	680,000000	20470,000000
	675,000000	20470,000000
	670,000000	20470,000000
	675,000000	20470,000000
	680,000000	20475,000000
	690,000000	20475,000000
	705,000000	20475,000000
	720,000000	20475,000000
	690,000000	20470,000000
	665,000000	20475,000000
	650,000000	20485,000000
	640,000000	20475,000000
	630,000000	20475,000000
	625,000000	20475,000000
	615,000000	20475,000000
	600,000000	20470,000000
	570,000000	20470,000000
	540,000000	20470,000000
	515,000000	20470,000000
	505,000000	20470,000000
	500,000000	20470,000000
	490,000000	20475,000000
	470,000000	20475,000000
	450,000000	20475,000000
	435,000000	20470,000000
	430,000000	20470,000000
	415,000000	20470,000000
	380,000000	20470,000000
	375,000000	20470,000000
	360,000000	20470,000000
	355,000000	20470,000000
	345,000000	20470,000000
	340,000000	20470,000000
	325,000000	20470,000000
	310,000000	20465,000000
	310,000000	20470,000000
	300,000000	20470,000000
	295,000000	20470,000000
	285,000000	20470,000000
	280,000000	20470,000000
	270,000000	20465,000000
	265,000000	20470,000000
	265,000000	20470,000000
	260,000000	20465,000000
	260,000000	20470,000000
	255,000000	20470,000000
	255,000000	20470,000000
	250,000000	20470,000000
	245,000000	20470,000000
	240,000000	20470,000000
	220,000000	20470,000000
	195,000000	20470,000000
	190,000000	20470,000000
	195,000000	20470,000000
	195,000000	20465,000000
	190,000000	20465,000000
	190,000000	20470,000000
	190,000000	20470,000000
	195,000000	20470,000000
	190,000000	20470,000000
	180,000000	20465,000000
	175,000000	20470,000000
	160,000000	20470,000000
	140,000000	20465,000000
	135,000000	20465,000000
	135,000000	20465,000000
	140,000000	20465,000000
	140,000000	20465,000000
	145,000000	20465,000000
	150,000000	20465,000000
	150,000000	20465,000000
	150,000000	20470,000000
	150,000000	20470,000000
	155,000000	20465,000000
	150,000000	20470,000000
	140,000000	20475,000000
	125,000000	20475,000000
	115,000000	20480,000000
	90,000000	20480,000000
	70,000000	20485,000000
	35,000000	20485,000000
	-5,000000	20485,000000
	-30,000000	20485,000000
	-65,000000	20485,000000
	-105,000000	20475,000000
	-150,000000	20475,000000
	-195,000000	20470,000000
	-230,000000	20465,000000
	-255,000000	20470,000000
	-270,000000	20470,000000
	-275,000000	20475,000000
	-285,000000	20475,000000
	-275,000000	20470,000000
	-255,000000	20470,000000
	-240,000000	20470,000000
	-205,000000	20470,000000
	-150,000000	20470,000000
	-70,000000	20470,000000
	35,000000	20470,000000
	160,000000	20465,000000
	305,000000	20470,000000
	485,000000	20470,000000
	665,000000	20470,000000
	815,000000	20475,000000
	1000,000000	20480,000000
	1190,000000	20475,000000
	1375,000000	20475,000000
	1555,000000	20485,000000
	1760,000000	20480,000000
	1955,000000	20475,000000
	2170,000000	20475,000000
	2420,000000	20475,000000
	2675,000000	20475,000000
	2895,000000	20475,000000
	3085,000000	20475,000000
	3175,000000	20475,000000
	3175,000000	20490,000000
	3130,000000	20490,000000
	3045,000000	20485,000000
	2980,000000	20485,000000
	2930,000000	20485,000000
	2835,000000	20480,000000
	2595,000000	20475,000000
	2260,000000	20475,000000
	1910,000000	20475,000000
	1515,000000	20470,000000
	1095,000000	20475,000000
	755,000000	20475,000000
	480,000000	20475,000000
	240,000000	20475,000000
	60,000000	20470,000000
	-25,000000	20475,000000
	-70,000000	20470,000000
	-105,000000	20470,000000
	-130,000000	20480,000000
	-160,000000	20475,000000
	-215,000000	20470,000000
	-275,000000	20470,000000
	-330,000000	20470,000000
	-385,000000	20475,000000
	-420,000000	20470,000000
	-470,000000	20470,000000
	-520,000000	20470,000000
	-545,000000	20470,000000
	-560,000000	20470,000000
	-560,000000	20470,000000
	-530,000000	20470,000000
	-485,000000	20470,000000
	-440,000000	20470,000000
	-400,000000	20470,000000
	-380,000000	20470,000000
	-350,000000	20465,000000
	-340,000000	20460,000000
	-320,000000	20465,000000
	-295,000000	20465,000000
	-260,000000	20460,000000
	-220,000000	20460,000000
	-180,000000	20460,000000
	-135,000000	20465,000000
	-90,000000	20465,000000
	-45,000000	20470,000000
	10,000000	20470,000000
	40,000000	20465,000000
	55,000000	20465,000000
	70,000000	20465,000000
	65,000000	20460,000000
	75,000000	20465,000000
	80,000000	20465,000000
	80,000000	20460,000000
	80,000000	20465,000000
	80,000000	20465,000000
	75,000000	20465,000000
	80,000000	20465,000000
	85,000000	20460,000000
	80,000000	20465,000000
	65,000000	20470,000000
	80,000000	20465,000000
	90,000000	20465,000000
	90,000000	20470,000000
	90,000000	20470,000000
	95,000000	20465,000000
	95,000000	20465,000000
	95,000000	20465,000000
	100,000000	20475,000000
	125,000000	20470,000000
	125,000000	20465,000000
	125,000000	20470,000000
	125,000000	20470,000000
	120,000000	20465,000000
	120,000000	20470,000000
	115,000000	20465,000000
	120,000000	20460,000000
	140,000000	20465,000000
	155,000000	20465,000000
	155,000000	20470,000000
	155,000000	20470,000000
	150,000000	20465,000000
	160,000000	20465,000000
	160,000000	20460,000000
	155,000000	20460,000000
	145,000000	20465,000000
	145,000000	20465,000000
	150,000000	20465,000000
	155,000000	20465,000000
	160,000000	20460,000000
	155,000000	20455,000000
	160,000000	20460,000000
	155,000000	20465,000000
	155,000000	20455,000000
	145,000000	20455,000000
	145,000000	20455,000000
	145,000000	20460,000000
	140,000000	20470,000000
	155,000000	20470,000000
	160,000000	20465,000000
	160,000000	20465,000000
	150,000000	20460,000000
	150,000000	20460,000000
	160,000000	20460,000000
	150,000000	20460,000000
	145,000000	20465,000000
	160,000000	20470,000000
	160,000000	20470,000000
	160,000000	20470,000000
	160,000000	20465,000000
	165,000000	20465,000000
	175,000000	20470,000000
	185,000000	20470,000000
	195,000000	20460,000000
	190,000000	20465,000000
	185,000000	20470,000000
	185,000000	20470,000000
	185,000000	20470,000000
	190,000000	20470,000000
	175,000000	20470,000000
	170,000000	20470,000000
	180,000000	20470,000000
	185,000000	20475,000000
	190,000000	20470,000000
	185,000000	20465,000000
	185,000000	20470,000000
	195,000000	20475,000000
	210,000000	20475,000000
	215,000000	20470,000000
	215,000000	20470,000000
	215,000000	20470,000000
	220,000000	20470,000000
	220,000000	20470,000000
	220,000000	20470,000000
	225,000000	20470,000000
	220,000000	20470,000000
	225,000000	20470,000000
	245,000000	20470,000000
	250,000000	20465,000000
	255,000000	20470,000000
	260,000000	20470,000000
	270,000000	20475,000000
	265,000000	20475,000000
	265,000000	20475,000000
	275,000000	20470,000000
	275,000000	20470,000000
	275,000000	20470,000000
	290,000000	20470,000000
	295,000000	20475,000000
	290,000000	20475,000000
	295,000000	20470,000000
	305,000000	20470,000000
	310,000000	20470,000000
	315,000000	20465,000000
	320,000000	20470,000000
	330,000000	20465,000000
	320,000000	20460,000000
	320,000000	20460,000000
	320,000000	20460,000000
	330,000000	20465,000000
	345,000000	20465,000000
	355,000000	20465,000000
	355,000000	20465,000000
	355,000000	20470,000000
	355,000000	20470,000000
	350,000000	20465,000000
	350,000000	20470,000000
	360,000000	20470,000000
	370,000000	20475,000000
	385,000000	20475,000000
	395,000000	20485,000000
	400,000000	20480,000000
	400,000000	20475,000000
	395,000000	20475,000000
	410,000000	20475,000000
	425,000000	20470,000000
	445,000000	20470,000000
	465,000000	20470,000000
	470,000000	20475,000000
	465,000000	20475,000000
	455,000000	20465,000000
	455,000000	20465,000000
	460,000000	20470,000000
	470,000000	20470,000000
	470,000000	20470,000000
	480,000000	20470,000000
	485,000000	20465,000000
	495,000000	20465,000000
	505,000000	20460,000000
	515,000000	20465,000000
	525,000000	20470,000000
	530,000000	20470,000000
	540,000000	20465,000000
	555,000000	20470,000000
	565,000000	20470,000000
	580,000000	20470,000000
	590,000000	20470,000000
	595,000000	20470,000000
	595,000000	20470,000000
	600,000000	20465,000000
	605,000000	20465,000000
	620,000000	20465,000000
	630,000000	20470,000000
	635,000000	20470,000000
	630,000000	20470,000000
	640,000000	20465,000000
	645,000000	20465,000000
	645,000000	20460,000000
	645,000000	20465,000000
	645,000000	20465,000000
	645,000000	20465,000000
	645,000000	20460,000000
	655,000000	20460,000000
	665,000000	20470,000000
	675,000000	20470,000000
	675,000000	20465,000000
	670,000000	20465,000000
	660,000000	20465,000000
	675,000000	20460,000000
	680,000000	20465,000000
	690,000000	20470,000000
	695,000000	20465,000000
	705,000000	20465,000000
	715,000000	20465,000000
	710,000000	20470,000000
	710,000000	20470,000000
	705,000000	20465,000000
	710,000000	20470,000000
	725,000000	20470,000000
	735,000000	20475,000000
	720,000000	20475,000000
	710,000000	20470,000000
	725,000000	20465,000000
	745,000000	20465,000000
	730,000000	20470,000000
	720,000000	20465,000000
	725,000000	20465,000000
	730,000000	20470,000000
	720,000000	20470,000000
	710,000000	20470,000000
	720,000000	20470,000000
	720,000000	20475,000000
	720,000000	20475,000000
	710,000000	20465,000000
	700,000000	20470,000000
	695,000000	20470,000000
	700,000000	20475,000000
	710,000000	20470,000000
	720,000000	20470,000000
	720,000000	20470,000000
	720,000000	20470,000000
	700,000000	20470,000000
	675,000000	20470,000000
	670,000000	20465,000000
	665,000000	20460,000000
	660,000000	20460,000000
	665,000000	20465,000000
	655,000000	20465,000000
	640,000000	20470,000000
	630,000000	20470,000000
	625,000000	20470,000000
	615,000000	20470,000000
	610,000000	20470,000000
	600,000000	20470,000000
	595,000000	20470,000000
	600,000000	20470,000000
	600,000000	20475,000000
	595,000000	20475,000000
	575,000000	20470,000000
	550,000000	20470,000000
	545,000000	20470,000000
	540,000000	20470,000000
	535,000000	20470,000000
	525,000000	20475,000000
	520,000000	20475,000000
	515,000000	20475,000000
	515,000000	20470,000000
	505,000000	20475,000000
	490,000000	20470,000000
	460,000000	20470,000000
	435,000000	20470,000000
	425,000000	20465,000000
	405,000000	20475,000000
	395,000000	20470,000000
	395,000000	20470,000000
	400,000000	20465,000000
	405,000000	20465,000000
	405,000000	20470,000000
	400,000000	20470,000000
	400,000000	20475,000000
	400,000000	20475,000000
	400,000000	20470,000000
	385,000000	20470,000000
	375,000000	20465,000000
	380,000000	20470,000000
	365,000000	20470,000000
	350,000000	20470,000000
	335,000000	20465,000000
	305,000000	20460,000000
	290,000000	20465,000000
	285,000000	20470,000000
	285,000000	20470,000000
	295,000000	20470,000000
	280,000000	20470,000000
	275,000000	20470,000000
	295,000000	20470,000000
	290,000000	20470,000000
	285,000000	20475,000000
	295,000000	20470,000000
	320,000000	20470,000000
	335,000000	20470,000000
	335,000000	20475,000000
	320,000000	20475,000000
	310,000000	20475,000000
	305,000000	20475,000000
	310,000000	20465,000000
	320,000000	20465,000000
	325,000000	20465,000000
	325,000000	20465,000000
	320,000000	20465,000000
	315,000000	20465,000000
	305,000000	20465,000000
	290,000000	20465,000000
	275,000000	20470,000000
	270,000000	20470,000000
	275,000000	20470,000000
	290,000000	20470,000000
	310,000000	20470,000000
	330,000000	20465,000000
	335,000000	20470,000000
	325,000000	20465,000000
	325,000000	20465,000000
	335,000000	20465,000000
	335,000000	20460,000000
	320,000000	20460,000000
	305,000000	20460,000000
	320,000000	20465,000000
	335,000000	20465,000000
	335,000000	20465,000000
	320,000000	20465,000000
	310,000000	20460,000000
	275,000000	20465,000000
	235,000000	20460,000000
	230,000000	20460,000000
	215,000000	20465,000000
	215,000000	20465,000000
	245,000000	20465,000000
	275,000000	20465,000000
	285,000000	20470,000000
	275,000000	20470,000000
	260,000000	20470,000000
	255,000000	20470,000000
	265,000000	20470,000000
	275,000000	20465,000000
	310,000000	20465,000000
	335,000000	20460,000000
	325,000000	20460,000000
	305,000000	20465,000000
	300,000000	20465,000000
	305,000000	20470,000000
	295,000000	20470,000000
	285,000000	20470,000000
	295,000000	20465,000000
	305,000000	20465,000000
	300,000000	20465,000000
	305,000000	20465,000000
	325,000000	20460,000000
	350,000000	20455,000000
	355,000000	20455,000000
	340,000000	20455,000000
	340,000000	20455,000000
	340,000000	20450,000000
	330,000000	20455,000000
	340,000000	20450,000000
	385,000000	20455,000000
	400,000000	20460,000000
	375,000000	20460,000000
	355,000000	20470,000000
	350,000000	20470,000000
	340,000000	20470,000000
	340,000000	20470,000000
	350,000000	20470,000000
	355,000000	20470,000000
	365,000000	20470,000000
	390,000000	20460,000000
	390,000000	20455,000000
	345,000000	20455,000000
	320,000000	20465,000000
	330,000000	20465,000000
	355,000000	20460,000000
	355,000000	20465,000000
	360,000000	20460,000000
	355,000000	20465,000000
	350,000000	20470,000000
	345,000000	20470,000000
	360,000000	20470,000000
	400,000000	20460,000000
	435,000000	20465,000000
	465,000000	20465,000000
	480,000000	20465,000000
	500,000000	20465,000000
	515,000000	20470,000000
	515,000000	20465,000000
	515,000000	20460,000000
	510,000000	20460,000000
	515,000000	20460,000000
	530,000000	20455,000000
	530,000000	20460,000000
	545,000000	20460,000000
	570,000000	20460,000000
	580,000000	20470,000000
	570,000000	20470,000000
	585,000000	20465,000000
	605,000000	20465,000000
	620,000000	20460,000000
	640,000000	20465,000000
	650,000000	20465,000000
	660,000000	20465,000000
	670,000000	20460,000000
	645,000000	20460,000000
	640,000000	20460,000000
	640,000000	20465,000000
	655,000000	20465,000000
	665,000000	20465,000000
	685,000000	20460,000000
	700,000000	20460,000000
	695,000000	20465,000000
	695,000000	20465,000000
	710,000000	20460,000000
	720,000000	20460,000000
	730,000000	20455,000000
	760,000000	20455,000000
	785,000000	20460,000000
	770,000000	20465,000000
	740,000000	20470,000000
	750,000000	20465,000000
	770,000000	20460,000000
	755,000000	20460,000000
	735,000000	20460,000000
	700,000000	20460,000000
	690,000000	20470,000000
	710,000000	20470,000000
	735,000000	20470,000000
	760,000000	20470,000000
	785,000000	20470,000000
	785,000000	20475,000000
	780,000000	20470,000000
	780,000000	20475,000000
	800,000000	20475,000000
	820,000000	20475,000000
	835,000000	20475,000000
	835,000000	20475,000000
	845,000000	20475,000000
	825,000000	20475,000000
	810,000000	20470,000000
	825,000000	20470,000000
	820,000000	20470,000000
	785,000000	20475,000000
	785,000000	20475,000000
	800,000000	20470,000000
	780,000000	20470,000000
	780,000000	20470,000000
	815,000000	20470,000000
	840,000000	20465,000000
	830,000000	20470,000000
	825,000000	20465,000000
	815,000000	20465,000000
	830,000000	20470,000000
	830,000000	20475,000000
	805,000000	20470,000000
	755,000000	20465,000000
	730,000000	20470,000000
	720,000000	20470,000000
	725,000000	20465,000000
	730,000000	20470,000000
	735,000000	20470,000000
	725,000000	20470,000000
	700,000000	20470,000000
	705,000000	20470,000000
	710,000000	20475,000000
	680,000000	20475,000000
	670,000000	20470,000000
	630,000000	20470,000000
	605,000000	20465,000000
	580,000000	20470,000000
	570,000000	20470,000000
	540,000000	20460,000000
	500,000000	20460,000000
	480,000000	20465,000000
	490,000000	20465,000000
	490,000000	20465,000000
	515,000000	20470,000000
	570,000000	20465,000000
	630,000000	20465,000000
	660,000000	20470,000000
	655,000000	20465,000000
	660,000000	20470,000000
	650,000000	20470,000000
	640,000000	20470,000000
	605,000000	20470,000000
	550,000000	20470,000000
	485,000000	20470,000000
	455,000000	20470,000000
	460,000000	20470,000000
	465,000000	20470,000000
	465,000000	20470,000000
	445,000000	20465,000000
	435,000000	20465,000000
	460,000000	20465,000000
	485,000000	20465,000000
	490,000000	20470,000000
	510,000000	20470,000000
	500,000000	20470,000000
	465,000000	20470,000000
	415,000000	20470,000000
	375,000000	20470,000000
	340,000000	20465,000000
	310,000000	20470,000000
	275,000000	20470,000000
	275,000000	20470,000000
	300,000000	20475,000000
	300,000000	20475,000000
	310,000000	20470,000000
	310,000000	20465,000000
	310,000000	20465,000000
	320,000000	20470,000000
	320,000000	20470,000000
	320,000000	20470,000000
	320,000000	20470,000000
	340,000000	20465,000000
	355,000000	20470,000000
	355,000000	20475,000000
	380,000000	20470,000000
	400,000000	20470,000000
	435,000000	20475,000000
	470,000000	20470,000000
	480,000000	20470,000000
	420,000000	20470,000000
	345,000000	20470,000000
	315,000000	20465,000000
	275,000000	20470,000000
	230,000000	20470,000000
	200,000000	20465,000000
	165,000000	20470,000000
	115,000000	20470,000000
	90,000000	20465,000000
	50,000000	20465,000000
	30,000000	20465,000000
	60,000000	20465,000000
	100,000000	20465,000000
	105,000000	20460,000000
	95,000000	20460,000000
	130,000000	20470,000000
	215,000000	20470,000000
	300,000000	20470,000000
	405,000000	20470,000000
	540,000000	20465,000000
	710,000000	20465,000000
	865,000000	20465,000000
	1040,000000	20465,000000
	1200,000000	20465,000000
	1335,000000	20465,000000
	1510,000000	20470,000000
	1705,000000	20465,000000
	1920,000000	20460,000000
	2090,000000	20460,000000
	2270,000000	20470,000000
	2435,000000	20465,000000
	2630,000000	20465,000000
	2815,000000	20465,000000
	2985,000000	20460,000000
	3150,000000	20465,000000
	3335,000000	20460,000000
	3475,000000	20460,000000
	3510,000000	20460,000000
	3470,000000	20455,000000
	3410,000000	20460,000000
	3360,000000	20460,000000
	3300,000000	20455,000000
	3200,000000	20455,000000
	3005,000000	20460,000000
	2735,000000	20465,000000
	2375,000000	20460,000000
	1965,000000	20465,000000
	1550,000000	20460,000000
	1190,000000	20465,000000
	910,000000	20470,000000
	675,000000	20465,000000
	470,000000	20470,000000
	350,000000	20465,000000
	300,000000	20470,000000
	255,000000	20470,000000
	205,000000	20460,000000
	170,000000	20465,000000
	115,000000	20465,000000
	45,000000	20465,000000
	-65,000000	20465,000000
	-135,000000	20465,000000
	-190,000000	20460,000000
	-220,000000	20460,000000
	-250,000000	20465,000000
	-290,000000	20470,000000
	-305,000000	20470,000000
	-285,000000	20475,000000
	-265,000000	20475,000000
	-210,000000	20470,000000
	-125,000000	20470,000000
	-45,000000	20475,000000
	30,000000	20475,000000
	40,000000	20470,000000
	35,000000	20465,000000
	55,000000	20460,000000
	100,000000	20460,000000
	110,000000	20460,000000
	145,000000	20460,000000
	220,000000	20455,000000
	290,000000	20455,000000
	340,000000	20455,000000
	380,000000	20465,000000
	380,000000	20460,000000
	320,000000	20465,000000
	285,000000	20465,000000
	275,000000	20465,000000
	300,000000	20465,000000
	320,000000	20460,000000
	295,000000	20465,000000
	255,000000	20465,000000
	215,000000	20465,000000
	205,000000	20460,000000
	225,000000	20465,000000
	230,000000	20460,000000
	220,000000	20465,000000
	210,000000	20465,000000
	230,000000	20465,000000
	215,000000	20465,000000
	190,000000	20460,000000
	215,000000	20450,000000
	265,000000	20460,000000
	295,000000	20460,000000
	265,000000	20455,000000
	250,000000	20455,000000
	305,000000	20455,000000
	320,000000	20460,000000
	310,000000	20470,000000
	320,000000	20460,000000
	320,000000	20460,000000
	290,000000	20460,000000
	245,000000	20455,000000
	230,000000	20455,000000
	240,000000	20455,000000
	270,000000	20460,000000
	315,000000	20460,000000
	355,000000	20460,000000
	355,000000	20465,000000
	340,000000	20460,000000
	395,000000	20455,000000
	405,000000	20455,000000
	360,000000	20455,000000
	345,000000	20455,000000
	360,000000	20455,000000
	400,000000	20460,000000
	435,000000	20465,000000
	460,000000	20460,000000
	470,000000	20460,000000
	460,000000	20450,000000
	425,000000	20455,000000
	365,000000	20460,000000
	370,000000	20460,000000
	370,000000	20460,000000
	355,000000	20455,000000
	365,000000	20460,000000
	400,000000	20455,000000
	405,000000	20460,000000
	430,000000	20460,000000
	435,000000	20465,000000
	405,000000	20465,000000
	405,000000	20465,000000
	410,000000	20460,000000
	405,000000	20460,000000
	415,000000	20455,000000
	435,000000	20460,000000
	460,000000	20465,000000
	485,000000	20460,000000
	480,000000	20455,000000
	475,000000	20450,000000
	490,000000	20450,000000
	495,000000	20455,000000
	515,000000	20460,000000
	525,000000	20460,000000
	510,000000	20455,000000
	495,000000	20455,000000
	495,000000	20455,000000
	480,000000	20460,000000
	480,000000	20460,000000
	470,000000	20455,000000
	450,000000	20455,000000
	435,000000	20460,000000
	430,000000	20460,000000
	435,000000	20460,000000
	440,000000	20460,000000
	435,000000	20455,000000
	430,000000	20455,000000
	445,000000	20455,000000
	425,000000	20450,000000
	420,000000	20455,000000
	455,000000	20455,000000
	495,000000	20450,000000
	485,000000	20455,000000
	455,000000	20455,000000
	455,000000	20460,000000
	505,000000	20465,000000
	545,000000	20460,000000
	530,000000	20460,000000
	520,000000	20460,000000
	515,000000	20460,000000
	505,000000	20460,000000
	495,000000	20460,000000
	495,000000	20460,000000
	480,000000	20455,000000
	435,000000	20455,000000
	415,000000	20455,000000
	455,000000	20455,000000
	555,000000	20455,000000
	630,000000	20455,000000
	640,000000	20455,000000
	595,000000	20455,000000
	540,000000	20455,000000
	515,000000	20455,000000
	535,000000	20455,000000
	515,000000	20455,000000
	505,000000	20460,000000
	510,000000	20460,000000
	455,000000	20455,000000
	405,000000	20455,000000
	415,000000	20455,000000
	450,000000	20455,000000
	500,000000	20455,000000
	560,000000	20460,000000
	560,000000	20465,000000
	520,000000	20465,000000
	515,000000	20460,000000
	520,000000	20460,000000
	535,000000	20460,000000
	560,000000	20460,000000
	600,000000	20460,000000
	655,000000	20460,000000
	615,000000	20455,000000
	590,000000	20455,000000
	610,000000	20455,000000
	650,000000	20460,000000
	670,000000	20465,000000
	675,000000	20460,000000
	660,000000	20465,000000
	625,000000	20465,000000
	625,000000	20460,000000
	645,000000	20460,000000
	675,000000	20460,000000
	695,000000	20455,000000
	725,000000	20455,000000
	730,000000	20460,000000
	720,000000	20465,000000
	750,000000	20465,000000
	750,000000	20465,000000
	720,000000	20465,000000
	720,000000	20465,000000
	750,000000	20460,000000
	735,000000	20460,000000
	695,000000	20465,000000
	665,000000	20460,000000
	660,000000	20455,000000
	680,000000	20460,000000
	710,000000	20465,000000
	755,000000	20465,000000
	775,000000	20470,000000
	780,000000	20470,000000
	775,000000	20470,000000
	780,000000	20470,000000
	780,000000	20470,000000
	745,000000	20460,000000
	735,000000	20460,000000
	740,000000	20460,000000
	745,000000	20460,000000
	760,000000	20465,000000
	775,000000	20460,000000
	760,000000	20460,000000
	715,000000	20460,000000
	705,000000	20465,000000
	720,000000	20460,000000
	705,000000	20460,000000
	695,000000	20470,000000
	695,000000	20470,000000
	720,000000	20465,000000
	745,000000	20465,000000
	735,000000	20460,000000
	705,000000	20465,000000
	725,000000	20465,000000
	740,000000	20465,000000
	730,000000	20465,000000
	710,000000	20465,000000
	685,000000	20460,000000
	675,000000	20455,000000
	720,000000	20460,000000
	760,000000	20460,000000
	760,000000	20455,000000
	730,000000	20455,000000
	705,000000	20455,000000
	685,000000	20460,000000
	675,000000	20465,000000
	675,000000	20465,000000
	655,000000	20460,000000
	620,000000	20455,000000
	620,000000	20455,000000
	645,000000	20465,000000
	625,000000	20465,000000
	595,000000	20465,000000
	595,000000	20465,000000
	615,000000	20460,000000
	625,000000	20460,000000
	645,000000	20460,000000
	645,000000	20460,000000
	655,000000	20460,000000
	640,000000	20455,000000
	620,000000	20465,000000
