	0,187500	-0,843750	0,546875
	0,187500	-0,765625	0,562500
	0,187500	-0,843750	0,546875
	0,203125	-0,843750	0,578125
	0,187500	-0,843750	0,546875
	0,171875	-0,859375	0,593750
	0,171875	-0,843750	0,562500
	0,156250	-0,875000	0,593750
	0,171875	-0,843750	0,593750
	0,203125	-0,859375	0,625000
	0,234375	-0,828125	0,609375
	0,234375	-0,843750	0,609375
	0,250000	-0,859375	0,609375
	0,250000	-0,859375	0,625000
	0,265625	-0,890625	0,625000
	0,234375	-0,890625	0,640625
	0,265625	-0,906250	0,625000
	0,234375	-0,843750	0,578125
	0,203125	-0,828125	0,546875
	0,203125	-0,859375	0,546875
	0,203125	-0,843750	0,546875
	0,234375	-0,843750	0,578125
	0,203125	-0,890625	0,609375
	0,234375	-0,890625	0,546875
	0,218750	-0,890625	0,562500
	0,218750	-0,921875	0,546875
	0,203125	-0,875000	0,562500
	0,203125	-0,875000	0,578125
	0,187500	-0,890625	0,593750
	0,203125	-0,890625	0,593750
	0,218750	-0,890625	0,609375
	0,218750	-0,812500	0,640625
	0,203125	-0,875000	0,593750
	0,187500	-0,906250	0,578125
	0,187500	-0,875000	0,578125
	0,203125	-0,875000	0,546875
	0,187500	-0,890625	0,546875
	0,171875	-0,890625	0,562500
	0,187500	-0,875000	0,531250
	0,171875	-0,875000	0,546875
	0,187500	-0,875000	0,546875
	0,156250	-0,875000	0,546875
	0,187500	-0,828125	0,578125
	0,187500	-0,875000	0,578125
	0,171875	-0,875000	0,546875
	0,203125	-0,859375	0,562500
	0,171875	-0,890625	0,578125
	0,203125	-0,890625	0,546875
	0,187500	-0,890625	0,578125
	0,187500	-0,875000	0,593750
	0,187500	-0,875000	0,593750
	0,218750	-0,890625	0,625000
	0,218750	-0,906250	0,593750
	0,187500	-0,875000	0,609375
	0,171875	-0,843750	0,625000
	0,203125	-0,812500	0,609375
	0,203125	-0,859375	0,593750
	0,187500	-0,859375	0,546875
	0,187500	-0,859375	0,562500
	0,187500	-0,859375	0,562500
	0,187500	-0,843750	0,546875
	0,218750	-0,843750	0,593750
	0,203125	-0,875000	0,546875
	0,234375	-0,890625	0,546875
	0,234375	-0,875000	0,562500
	0,234375	-0,890625	0,562500
	0,187500	-0,890625	0,562500
	0,218750	-0,875000	0,562500
	0,203125	-0,875000	0,562500
	0,234375	-0,875000	0,562500
	0,203125	-0,859375	0,562500
	0,203125	-0,859375	0,593750
	0,234375	-0,843750	0,578125
	0,187500	-0,859375	0,593750
	0,140625	-0,859375	0,562500
	0,156250	-0,859375	0,578125
	0,203125	-0,859375	0,578125
	0,171875	-0,875000	0,593750
	0,171875	-0,875000	0,562500
	0,187500	-0,843750	0,578125
	0,203125	-0,859375	0,578125
	0,234375	-0,812500	0,640625
	0,203125	-0,859375	0,593750
	0,203125	-0,859375	0,609375
	0,234375	-0,859375	0,609375
	0,203125	-0,843750	0,578125
	0,203125	-0,859375	0,562500
	0,187500	-0,859375	0,578125
	0,203125	-0,859375	0,578125
	0,218750	-0,859375	0,546875
	0,218750	-0,859375	0,562500
	0,218750	-0,859375	0,609375
	0,218750	-0,843750	0,562500
	0,218750	-0,875000	0,578125
	0,218750	-0,843750	0,562500
	0,234375	-0,890625	0,593750
	0,234375	-0,890625	0,546875
	0,234375	-0,875000	0,546875
	0,234375	-0,859375	0,546875
	0,218750	-0,875000	0,578125
	0,250000	-0,859375	0,578125
	0,234375	-0,875000	0,593750
	0,265625	-0,843750	0,609375
	0,234375	-0,859375	0,593750
	0,234375	-0,875000	0,578125
	0,234375	-0,843750	0,609375
	0,218750	-0,859375	0,609375
	0,203125	-0,875000	0,593750
	0,218750	-0,859375	0,578125
	0,218750	-0,843750	0,593750
	0,203125	-0,843750	0,578125
	0,234375	-0,843750	0,609375
	0,187500	-0,859375	0,609375
	0,203125	-0,859375	0,656250
	0,187500	-0,859375	0,562500
	0,187500	-0,859375	0,578125
	0,203125	-0,859375	0,578125
	0,187500	-0,843750	0,593750
	0,187500	-0,875000	0,578125
	0,171875	-0,828125	0,578125
	0,171875	-0,828125	0,562500
	0,171875	-0,812500	0,609375
	0,156250	-0,875000	0,593750
	0,203125	-0,843750	0,562500
	0,203125	-0,875000	0,578125
	0,218750	-0,875000	0,578125
	0,218750	-0,875000	0,562500
	0,203125	-0,890625	0,609375
	0,218750	-0,859375	0,593750
	0,218750	-0,875000	0,593750
	0,234375	-0,843750	0,593750
	0,218750	-0,875000	0,593750
	0,296875	-0,828125	0,640625
	0,250000	-0,843750	0,593750
	0,218750	-0,859375	0,609375
	0,250000	-0,843750	0,593750
	0,250000	-0,859375	0,593750
	0,250000	-0,859375	0,609375
	0,265625	-0,843750	0,593750
	0,265625	-0,859375	0,593750
	0,234375	-0,859375	0,593750
	0,281250	-0,796875	0,593750
	0,234375	-0,828125	0,578125
	0,203125	-0,859375	0,593750
	0,218750	-0,859375	0,593750
	0,234375	-0,875000	0,578125
	0,218750	-0,843750	0,593750
	0,187500	-0,859375	0,562500
	0,187500	-0,875000	0,546875
	0,203125	-0,875000	0,562500
	0,187500	-0,859375	0,593750
	0,218750	-0,843750	0,625000
	0,187500	-0,859375	0,593750
	0,203125	-0,890625	0,578125
	0,250000	-0,843750	0,609375
	0,140625	-0,890625	0,546875
	0,171875	-0,859375	0,578125
	0,156250	-0,875000	0,593750
	0,156250	-0,859375	0,593750
	0,171875	-0,890625	0,593750
	0,171875	-0,859375	0,593750
	0,187500	-0,890625	0,609375
	0,171875	-0,843750	0,593750
	0,171875	-0,843750	0,578125
	0,171875	-0,875000	0,578125
	0,187500	-0,859375	0,593750
	0,203125	-0,843750	0,578125
	0,187500	-0,843750	0,578125
	0,187500	-0,828125	0,562500
	0,218750	-0,890625	0,578125
	0,187500	-0,875000	0,562500
	0,250000	-0,812500	0,593750
	0,218750	-0,875000	0,593750
	0,218750	-0,890625	0,609375
	0,203125	-0,859375	0,593750
	0,203125	-0,875000	0,593750
	0,234375	-0,859375	0,593750
	0,203125	-0,875000	0,578125
	0,203125	-0,875000	0,578125
	0,203125	-0,875000	0,531250
	0,203125	-0,875000	0,562500
	0,281250	-0,859375	0,593750
	0,234375	-0,859375	0,593750
	0,234375	-0,875000	0,546875
	0,234375	-0,890625	0,562500
	0,250000	-0,859375	0,578125
	0,218750	-0,875000	0,578125
	0,218750	-0,875000	0,578125
	0,203125	-0,875000	0,578125
	0,203125	-0,859375	0,593750
	0,218750	-0,843750	0,546875
	0,203125	-0,890625	0,593750
	0,218750	-0,875000	0,546875
	0,234375	-0,843750	0,546875
	0,234375	-0,859375	0,562500
	0,187500	-0,875000	0,562500
	0,187500	-0,843750	0,578125
	0,218750	-0,875000	0,578125
	0,218750	-0,859375	0,562500
	0,218750	-0,859375	0,562500
	0,218750	-0,890625	0,578125
	0,250000	-0,843750	0,625000
	0,234375	-0,875000	0,578125
	0,218750	-0,875000	0,578125
	0,218750	-0,890625	0,546875
	0,218750	-0,890625	0,562500
	0,234375	-0,875000	0,593750
	0,218750	-0,859375	0,562500
	0,203125	-0,875000	0,578125
	0,171875	-0,828125	0,562500
	0,203125	-0,890625	0,562500
	0,218750	-0,843750	0,609375
	0,203125	-0,875000	0,578125
	0,203125	-0,843750	0,562500
	0,187500	-0,875000	0,546875
	0,203125	-0,859375	0,562500
	0,203125	-0,859375	0,593750
	0,218750	-0,843750	0,578125
	0,187500	-0,859375	0,562500
	0,218750	-0,875000	0,562500
	0,187500	-0,875000	0,546875
	0,203125	-0,890625	0,562500
	0,187500	-0,859375	0,562500
	0,234375	-0,890625	0,593750
	0,203125	-0,875000	0,562500
	0,218750	-0,890625	0,578125
	0,203125	-0,875000	0,578125
	0,218750	-0,890625	0,562500
	0,203125	-0,859375	0,593750
	0,218750	-0,843750	0,562500
	0,171875	-0,859375	0,578125
	0,218750	-0,843750	0,625000
	0,218750	-0,875000	0,578125
	0,203125	-0,859375	0,578125
	0,203125	-0,875000	0,531250
	0,218750	-0,875000	0,562500
	0,234375	-0,859375	0,531250
	0,218750	-0,859375	0,562500
	0,234375	-0,875000	0,531250
	0,234375	-0,906250	0,531250
	0,265625	-0,890625	0,562500
	0,281250	-0,843750	0,609375
	0,265625	-0,875000	0,578125
	0,250000	-0,859375	0,562500
	0,250000	-0,890625	0,578125
	0,234375	-0,812500	0,578125
	0,203125	-0,859375	0,562500
	0,171875	-0,828125	0,562500
	0,156250	-0,828125	0,546875
	0,156250	-0,843750	0,500000
	0,140625	-0,843750	0,531250
	0,156250	-0,843750	0,546875
	0,140625	-0,828125	0,609375
	0,140625	-0,843750	0,609375
	0,156250	-0,812500	0,640625
	0,171875	-0,859375	0,671875
	0,171875	-0,828125	0,625000
	0,156250	-0,843750	0,625000
	0,171875	-0,843750	0,625000
	0,156250	-0,843750	0,625000
	0,187500	-0,843750	0,609375
	0,218750	-0,843750	0,656250
	0,203125	-0,859375	0,609375
	0,171875	-0,859375	0,609375
	0,171875	-0,843750	0,609375
	0,203125	-0,890625	0,593750
	0,203125	-0,875000	0,578125
	0,203125	-0,875000	0,546875
	0,203125	-0,859375	0,531250
	0,218750	-0,906250	0,593750
	0,218750	-0,890625	0,578125
	0,234375	-0,875000	0,578125
	0,250000	-0,843750	0,578125
	0,218750	-0,875000	0,578125
	0,218750	-0,859375	0,546875
	0,218750	-0,859375	0,562500
	0,234375	-0,875000	0,546875
	0,218750	-0,843750	0,546875
	0,234375	-0,906250	0,531250
	0,250000	-0,906250	0,515625
	0,203125	-0,906250	0,531250
	0,218750	-0,890625	0,531250
	0,234375	-0,906250	0,562500
	0,234375	-0,906250	0,562500
	0,234375	-0,921875	0,562500
	0,250000	-0,921875	0,578125
	0,250000	-0,937500	0,562500
	0,250000	-0,890625	0,562500
	0,234375	-0,875000	0,531250
	0,218750	-0,875000	0,531250
	0,187500	-0,843750	0,500000
	0,156250	-0,812500	0,546875
	0,156250	-0,859375	0,500000
	0,156250	-0,890625	0,515625
	0,140625	-0,906250	0,531250
	0,187500	-0,875000	0,546875
	0,203125	-0,875000	0,578125
	0,203125	-0,875000	0,562500
	0,218750	-0,875000	0,546875
	0,234375	-0,906250	0,531250
	0,265625	-0,875000	0,546875
	0,250000	-0,859375	0,578125
	0,265625	-0,859375	0,562500
	0,218750	-0,875000	0,562500
	0,203125	-0,906250	0,562500
	0,234375	-0,843750	0,562500
	0,187500	-0,843750	0,562500
	0,156250	-0,875000	0,531250
	0,171875	-0,937500	0,500000
	0,156250	-0,953125	0,468750
	0,156250	-0,937500	0,453125
	0,187500	-0,937500	0,468750
	0,203125	-0,890625	0,515625
	0,171875	-0,859375	0,531250
	0,140625	-0,859375	0,546875
	0,140625	-0,859375	0,562500
	0,156250	-0,890625	0,625000
	0,140625	-0,890625	0,609375
	0,125000	-0,890625	0,578125
	0,140625	-0,875000	0,562500
	0,156250	-0,890625	0,609375
	0,156250	-0,875000	0,625000
	0,140625	-0,875000	0,578125
	0,140625	-0,890625	0,578125
	0,156250	-0,859375	0,562500
	0,140625	-0,843750	0,578125
	0,187500	-0,875000	0,593750
	0,171875	-0,859375	0,593750
	0,171875	-0,859375	0,593750
	0,187500	-0,859375	0,609375
	0,218750	-0,859375	0,640625
	0,203125	-0,843750	0,640625
	0,218750	-0,812500	0,609375
	0,203125	-0,875000	0,625000
	0,250000	-0,906250	0,562500
	0,218750	-0,890625	0,562500
	0,218750	-0,906250	0,593750
	0,218750	-0,875000	0,546875
	0,218750	-0,921875	0,515625
	0,218750	-0,906250	0,515625
	0,203125	-0,921875	0,515625
	0,171875	-0,921875	0,515625
	0,187500	-0,875000	0,546875
	0,203125	-0,890625	0,546875
	0,203125	-0,875000	0,531250
	0,218750	-0,875000	0,546875
	0,187500	-0,875000	0,546875
	0,203125	-0,890625	0,531250
	0,203125	-0,890625	0,546875
	0,203125	-0,890625	0,546875
	0,187500	-0,906250	0,546875
	0,218750	-0,875000	0,609375
	0,187500	-0,890625	0,578125
	0,187500	-0,875000	0,562500
	0,203125	-0,906250	0,578125
	0,203125	-0,906250	0,593750
	0,203125	-0,890625	0,562500
	0,203125	-0,875000	0,562500
	0,203125	-0,859375	0,546875
	0,234375	-0,890625	0,562500
	0,234375	-0,906250	0,531250
	0,218750	-0,921875	0,546875
	0,218750	-0,906250	0,546875
	0,218750	-0,906250	0,515625
	0,187500	-0,890625	0,546875
	0,203125	-0,890625	0,546875
	0,218750	-0,859375	0,546875
	0,171875	-0,859375	0,562500
	0,171875	-0,828125	0,546875
	0,156250	-0,859375	0,562500
	0,187500	-0,859375	0,593750
	0,187500	-0,843750	0,593750
	0,171875	-0,875000	0,625000
	0,171875	-0,843750	0,625000
	0,171875	-0,875000	0,625000
	0,171875	-0,843750	0,609375
	0,187500	-0,890625	0,625000
	0,187500	-0,875000	0,593750
	0,187500	-0,859375	0,578125
	0,203125	-0,890625	0,562500
	0,218750	-0,890625	0,578125
	0,250000	-0,875000	0,578125
	0,187500	-0,890625	0,562500
	0,187500	-0,890625	0,578125
	0,171875	-0,890625	0,546875
	0,187500	-0,859375	0,546875
	0,156250	-0,875000	0,562500
	0,171875	-0,859375	0,593750
	0,187500	-0,843750	0,562500
	0,187500	-0,875000	0,562500
	0,187500	-0,828125	0,562500
	0,203125	-0,812500	0,609375
	0,203125	-0,812500	0,625000
	0,187500	-0,828125	0,609375
	0,140625	-0,796875	0,640625
	0,187500	-0,812500	0,640625
	0,171875	-0,796875	0,656250
	0,171875	-0,812500	0,656250
	0,187500	-0,812500	0,640625
	0,203125	-0,781250	0,640625
	0,156250	-0,781250	0,640625
	0,156250	-0,796875	0,640625
	0,140625	-0,828125	0,656250
	0,156250	-0,843750	0,640625
	0,156250	-0,828125	0,656250
	0,140625	-0,843750	0,640625
	0,140625	-0,875000	0,593750
	0,140625	-0,890625	0,562500
	0,156250	-0,875000	0,546875
	0,171875	-0,890625	0,546875
	0,171875	-0,906250	0,531250
	0,187500	-0,890625	0,578125
	0,187500	-0,937500	0,593750
	0,187500	-0,937500	0,593750
	0,171875	-0,906250	0,546875
	0,203125	-0,921875	0,531250
	0,187500	-0,921875	0,515625
	0,187500	-0,937500	0,515625
	0,171875	-0,937500	0,531250
	0,218750	-0,890625	0,578125
	0,218750	-0,906250	0,578125
	0,250000	-0,890625	0,578125
	0,218750	-0,843750	0,593750
	0,203125	-0,859375	0,609375
	0,234375	-0,812500	0,625000
	0,203125	-0,796875	0,593750
	0,203125	-0,796875	0,625000
	0,187500	-0,781250	0,640625
	0,140625	-0,765625	0,625000
	0,140625	-0,796875	0,640625
	0,140625	-0,828125	0,609375
	0,187500	-0,859375	0,703125
	0,187500	-0,921875	0,656250
	0,187500	-0,906250	0,625000
	0,250000	-0,890625	0,656250
	0,265625	-0,906250	0,625000
	0,265625	-0,875000	0,562500
	0,265625	-0,859375	0,546875
	0,250000	-0,875000	0,531250
	0,234375	-0,859375	0,500000
	0,203125	-0,859375	0,515625
	0,234375	-0,812500	0,562500
	0,187500	-0,890625	0,562500
	0,187500	-0,859375	0,562500
	0,171875	-0,859375	0,609375
	0,187500	-0,875000	0,640625
	0,187500	-0,875000	0,609375
	0,203125	-0,890625	0,609375
	0,187500	-0,875000	0,578125
	0,187500	-0,890625	0,562500
	0,187500	-0,906250	0,546875
	0,203125	-0,890625	0,562500
	0,234375	-0,890625	0,531250
	0,187500	-0,859375	0,562500
	0,203125	-0,828125	0,609375
	0,156250	-0,859375	0,578125
	0,187500	-0,890625	0,546875
	0,234375	-0,890625	0,593750
	0,234375	-0,875000	0,593750
	0,218750	-0,875000	0,562500
	0,203125	-0,890625	0,578125
	0,250000	-0,875000	0,578125
	0,203125	-0,921875	0,531250
	0,203125	-0,953125	0,515625
	0,203125	-0,921875	0,500000
	0,203125	-0,890625	0,515625
	0,171875	-0,875000	0,515625
	0,171875	-0,875000	0,531250
	0,156250	-0,859375	0,546875
	0,171875	-0,875000	0,546875
	0,203125	-0,859375	0,531250
	0,234375	-0,828125	0,578125
	0,187500	-0,843750	0,578125
	0,187500	-0,828125	0,562500
	0,187500	-0,828125	0,562500
	0,171875	-0,859375	0,531250
	0,140625	-0,875000	0,546875
	0,140625	-0,890625	0,531250
	0,140625	-0,890625	0,562500
	0,140625	-0,906250	0,578125
	0,156250	-0,906250	0,562500
	0,156250	-0,906250	0,609375
	0,156250	-0,859375	0,609375
	0,156250	-0,875000	0,593750
	0,187500	-0,875000	0,593750
	0,171875	-0,890625	0,593750
	0,187500	-0,890625	0,578125
	0,187500	-0,875000	0,546875
	0,171875	-0,890625	0,531250
	0,171875	-0,875000	0,500000
	0,171875	-0,875000	0,531250
	0,218750	-0,859375	0,562500
	0,171875	-0,906250	0,531250
	0,171875	-0,890625	0,500000
	0,187500	-0,875000	0,531250
	0,156250	-0,875000	0,515625
	0,187500	-0,906250	0,531250
	0,203125	-0,937500	0,484375
	0,203125	-0,921875	0,515625
	0,187500	-0,953125	0,546875
	0,187500	-0,921875	0,546875
	0,218750	-0,875000	0,562500
	0,171875	-0,859375	0,562500
	0,171875	-0,859375	0,578125
	0,203125	-0,843750	0,593750
	0,203125	-0,828125	0,609375
	0,218750	-0,843750	0,609375
	0,234375	-0,859375	0,625000
	0,218750	-0,843750	0,640625
	0,234375	-0,828125	0,609375
	0,250000	-0,843750	0,593750
	0,234375	-0,859375	0,562500
	0,250000	-0,828125	0,609375
	0,218750	-0,875000	0,609375
	0,187500	-0,859375	0,578125
	0,203125	-0,875000	0,593750
	0,187500	-0,859375	0,593750
	0,218750	-0,859375	0,562500
	0,218750	-0,875000	0,578125
	0,218750	-0,906250	0,546875
	0,218750	-0,906250	0,546875
	0,218750	-0,843750	0,546875
	0,218750	-0,875000	0,484375
	0,203125	-0,906250	0,484375
	0,218750	-0,890625	0,515625
	0,203125	-0,890625	0,531250
	0,203125	-0,890625	0,484375
	0,218750	-0,890625	0,515625
	0,187500	-0,906250	0,515625
	0,171875	-0,875000	0,515625
	0,171875	-0,906250	0,515625
	0,218750	-0,890625	0,562500
	0,187500	-0,890625	0,515625
	0,187500	-0,890625	0,546875
	0,156250	-0,875000	0,562500
	0,140625	-0,875000	0,546875
	0,156250	-0,828125	0,562500
	0,156250	-0,859375	0,546875
	0,156250	-0,906250	0,578125
	0,156250	-0,890625	0,593750
	0,156250	-0,890625	0,609375
	0,156250	-0,921875	0,625000
	0,171875	-0,906250	0,625000
	0,140625	-0,953125	0,656250
	0,156250	-0,953125	0,625000
	0,171875	-0,921875	0,578125
	0,171875	-0,937500	0,578125
	0,218750	-0,890625	0,578125
	0,203125	-0,875000	0,546875
	0,187500	-0,859375	0,562500
	0,187500	-0,843750	0,562500
	0,265625	-0,796875	0,625000
	0,187500	-0,875000	0,625000
	0,234375	-0,875000	0,640625
	0,281250	-0,859375	0,656250
	0,203125	-0,859375	0,609375
	0,203125	-0,859375	0,593750
	0,171875	-0,843750	0,578125
	0,203125	-0,843750	0,531250
	0,203125	-0,843750	0,546875
	0,171875	-0,828125	0,531250
	0,234375	-0,765625	0,562500
	0,187500	-0,718750	0,515625
	0,203125	-0,718750	0,546875
	0,140625	-0,875000	0,625000
	0,140625	-0,890625	0,578125
	0,187500	-0,953125	0,562500
	0,203125	-1,000000	0,531250
	0,203125	-1,046875	0,531250
	0,218750	-0,968750	0,546875
	0,218750	-0,890625	0,546875
	0,187500	-0,828125	0,625000
	0,187500	-0,828125	0,593750
	0,156250	-0,812500	0,593750
	0,187500	-0,859375	0,593750
	0,187500	-0,859375	0,593750
	0,187500	-0,875000	0,578125
	0,187500	-0,859375	0,578125
	0,218750	-0,875000	0,578125
	0,187500	-0,875000	0,562500
	0,203125	-0,875000	0,578125
	0,218750	-0,843750	0,625000
	0,203125	-0,906250	0,609375
	0,203125	-0,890625	0,609375
	0,234375	-0,875000	0,578125
	0,234375	-0,890625	0,484375
	0,250000	-0,859375	0,468750
	0,234375	-0,921875	0,468750
	0,218750	-0,890625	0,500000
	0,187500	-0,906250	0,546875
	0,156250	-0,921875	0,546875
	0,140625	-0,859375	0,578125
	0,125000	-0,906250	0,578125
	0,093750	-0,890625	0,593750
	0,046875	-0,906250	0,609375
	0,015625	-0,875000	0,640625
	0,031250	-0,875000	0,656250
	0,046875	-0,859375	0,671875
	0,093750	-0,859375	0,687500
	0,093750	-0,828125	0,656250
	0,125000	-0,812500	0,625000
	0,156250	-0,843750	0,625000
	0,187500	-0,859375	0,625000
	0,203125	-0,890625	0,593750
	0,218750	-0,859375	0,609375
	0,250000	-0,890625	0,593750
	0,250000	-0,875000	0,562500
	0,250000	-0,906250	0,546875
	0,281250	-0,890625	0,531250
	0,281250	-0,906250	0,500000
	0,296875	-0,906250	0,468750
	0,343750	-0,906250	0,531250
	0,281250	-0,890625	0,515625
	0,296875	-0,890625	0,531250
	0,296875	-0,890625	0,515625
	0,250000	-0,875000	0,500000
	0,187500	-0,843750	0,531250
	0,187500	-0,859375	0,546875
	0,187500	-0,875000	0,562500
	0,171875	-0,875000	0,609375
	0,156250	-0,875000	0,609375
	0,156250	-0,859375	0,640625
	0,171875	-0,875000	0,593750
	0,156250	-0,890625	0,578125
	0,140625	-0,890625	0,578125
	0,125000	-0,890625	0,578125
	0,140625	-0,875000	0,593750
	0,125000	-0,859375	0,625000
	0,140625	-0,859375	0,593750
	0,125000	-0,875000	0,562500
	0,156250	-0,875000	0,531250
	0,203125	-0,875000	0,515625
	0,171875	-0,890625	0,515625
	0,187500	-0,906250	0,593750
	0,187500	-0,890625	0,562500
	0,187500	-0,890625	0,562500
	0,156250	-0,890625	0,562500
	0,171875	-0,890625	0,578125
	0,203125	-0,906250	0,515625
	0,187500	-0,906250	0,546875
	0,203125	-0,921875	0,562500
	0,234375	-0,859375	0,546875
	0,187500	-0,906250	0,531250
	0,187500	-0,906250	0,546875
	0,171875	-0,875000	0,546875
	0,171875	-0,906250	0,578125
	0,171875	-0,890625	0,578125
	0,187500	-0,890625	0,562500
	0,203125	-0,859375	0,562500
	0,203125	-0,859375	0,578125
	0,203125	-0,890625	0,562500
	0,187500	-0,843750	0,593750
	0,187500	-0,875000	0,609375
	0,171875	-0,875000	0,562500
	0,250000	-0,859375	0,625000
	0,203125	-0,890625	0,531250
	0,203125	-0,890625	0,531250
	0,203125	-0,890625	0,562500
	0,187500	-0,875000	0,593750
	0,187500	-0,890625	0,578125
	0,187500	-0,875000	0,546875
	0,187500	-0,890625	0,515625
	0,187500	-0,859375	0,515625
	0,171875	-0,859375	0,546875
	0,140625	-0,875000	0,562500
	0,156250	-0,890625	0,562500
	0,140625	-0,875000	0,578125
	0,140625	-0,875000	0,578125
	0,156250	-0,875000	0,562500
	0,156250	-0,875000	0,593750
	0,203125	-0,890625	0,500000
	0,234375	-0,859375	0,531250
	0,203125	-0,890625	0,531250
	0,218750	-0,906250	0,546875
	0,218750	-0,875000	0,546875
	0,218750	-0,875000	0,546875
	0,234375	-0,890625	0,531250
	0,234375	-0,875000	0,546875
	0,218750	-0,890625	0,546875
	0,234375	-0,875000	0,546875
	0,203125	-0,890625	0,546875
	0,203125	-0,859375	0,562500
	0,218750	-0,843750	0,546875
	0,203125	-0,906250	0,609375
	0,187500	-0,890625	0,625000
	0,234375	-0,890625	0,640625
	0,203125	-0,875000	0,640625
	0,156250	-0,859375	0,593750
	0,156250	-0,828125	0,593750
	0,140625	-0,843750	0,609375
	0,109375	-0,890625	0,625000
	0,156250	-0,906250	0,625000
	0,156250	-0,890625	0,562500
	0,171875	-0,906250	0,546875
	0,171875	-0,875000	0,500000
	0,156250	-0,843750	0,437500
	0,140625	-0,859375	0,515625
	0,156250	-0,843750	0,546875
	0,171875	-0,859375	0,578125
	0,187500	-0,859375	0,609375
	0,171875	-0,859375	0,609375
	0,203125	-0,796875	0,640625
	0,187500	-0,875000	0,609375
	0,187500	-0,859375	0,609375
	0,203125	-0,875000	0,546875
	0,187500	-0,843750	0,546875
	0,203125	-0,859375	0,531250
	0,218750	-0,875000	0,546875
	0,156250	-0,875000	0,562500
	0,171875	-0,875000	0,593750
	0,187500	-0,890625	0,593750
	0,187500	-0,906250	0,625000
	0,187500	-0,859375	0,609375
	0,171875	-0,859375	0,562500
	0,187500	-0,875000	0,546875
	0,171875	-0,875000	0,546875
	0,203125	-0,843750	0,546875
	0,187500	-0,843750	0,578125
	0,156250	-0,859375	0,640625
	0,187500	-0,875000	0,625000
	0,171875	-0,859375	0,625000
	0,187500	-0,875000	0,593750
	0,171875	-0,843750	0,593750
	0,140625	-0,859375	0,593750
	0,171875	-0,875000	0,593750
	0,156250	-0,859375	0,578125
	0,171875	-0,875000	0,578125
	0,187500	-0,875000	0,593750
	0,187500	-0,859375	0,593750
	0,203125	-0,859375	0,609375
	0,187500	-0,906250	0,578125
	0,203125	-0,828125	0,593750
	0,171875	-0,859375	0,546875
	0,187500	-0,875000	0,562500
	0,187500	-0,890625	0,578125
	0,156250	-0,875000	0,562500
	0,171875	-0,859375	0,593750
	0,171875	-0,859375	0,593750
	0,187500	-0,859375	0,593750
	0,156250	-0,843750	0,609375
	0,187500	-0,843750	0,593750
	0,203125	-0,843750	0,593750
	0,234375	-0,828125	0,578125
	0,156250	-0,875000	0,578125
	0,171875	-0,875000	0,578125
	0,187500	-0,890625	0,593750
	0,156250	-0,859375	0,593750
	0,156250	-0,890625	0,578125
	0,093750	-0,875000	0,578125
	0,156250	-0,875000	0,578125
	0,125000	-0,875000	0,609375
	0,171875	-0,859375	0,671875
	0,140625	-0,875000	0,625000
	0,109375	-0,890625	0,640625
	0,109375	-0,843750	0,671875
	0,140625	-0,859375	0,671875
	0,140625	-0,812500	0,625000
	0,140625	-0,812500	0,625000
	0,203125	-0,812500	0,593750
	0,250000	-0,828125	0,593750
	0,265625	-0,796875	0,578125
	0,281250	-0,796875	0,593750
	0,203125	-0,843750	0,578125
	0,171875	-0,828125	0,531250
	0,171875	-0,890625	0,515625
	0,203125	-0,937500	0,546875
	0,187500	-0,921875	0,531250
	0,203125	-0,937500	0,546875
	0,234375	-0,953125	0,546875
	0,234375	-0,921875	0,562500
	0,250000	-0,921875	0,578125
	0,218750	-0,890625	0,578125
	0,218750	-0,828125	0,593750
	0,171875	-0,843750	0,578125
	0,140625	-0,859375	0,593750
	0,187500	-0,843750	0,593750
	0,156250	-0,812500	0,593750
	0,187500	-0,843750	0,609375
	0,156250	-0,859375	0,609375
	0,156250	-0,843750	0,625000
	0,187500	-0,859375	0,656250
	0,187500	-0,843750	0,640625
	0,171875	-0,890625	0,609375
	0,156250	-0,859375	0,546875
	0,187500	-0,875000	0,562500
	0,187500	-0,843750	0,578125
	0,203125	-0,859375	0,562500
	0,218750	-0,859375	0,578125
	0,203125	-0,875000	0,562500
	0,218750	-0,859375	0,562500
	0,234375	-0,875000	0,578125
	0,218750	-0,843750	0,609375
	0,218750	-0,859375	0,578125
	0,281250	-0,843750	0,578125
	0,140625	-0,843750	0,609375
	0,031250	-0,875000	0,625000
	0,109375	-0,890625	0,578125
	0,203125	-0,843750	0,578125
	0,156250	-0,875000	0,578125
	0,125000	-0,890625	0,578125
	0,187500	-0,906250	0,578125
	0,156250	-0,906250	0,593750
	0,171875	-0,890625	0,625000
	0,109375	-0,921875	0,562500
	0,156250	-0,890625	0,578125
	0,171875	-0,875000	0,593750
	0,156250	-0,859375	0,562500
	0,140625	-0,859375	0,578125
	0,156250	-0,859375	0,609375
	0,171875	-0,859375	0,578125
	0,187500	-0,859375	0,593750
	0,218750	-0,812500	0,609375
	0,203125	-0,859375	0,593750
	0,312500	-0,859375	0,593750
	0,265625	-0,875000	0,609375
	0,203125	-0,859375	0,578125
	0,171875	-0,812500	0,593750
	0,203125	-0,828125	0,578125
	0,234375	-0,828125	0,562500
	0,218750	-0,781250	0,546875
	0,171875	-0,812500	0,515625
	0,203125	-0,921875	0,578125
	0,187500	-1,046875	0,609375
	0,187500	-1,062500	0,578125
	0,218750	-0,968750	0,515625
	0,234375	-0,906250	0,515625
	0,203125	-0,875000	0,562500
	0,218750	-0,812500	0,546875
	0,187500	-0,812500	0,609375
	0,156250	-0,812500	0,609375
	0,171875	-0,859375	0,625000
	0,203125	-0,859375	0,625000
	0,203125	-0,843750	0,562500
	0,187500	-0,843750	0,546875
	0,171875	-0,859375	0,546875
	0,171875	-0,859375	0,578125
	0,187500	-0,875000	0,578125
	0,156250	-0,859375	0,562500
	0,171875	-0,859375	0,593750
	0,187500	-0,875000	0,578125
	0,203125	-0,890625	0,593750
	0,265625	-0,812500	0,609375
	0,312500	-0,812500	0,640625
	0,250000	-0,843750	0,609375
	0,218750	-0,859375	0,609375
	0,171875	-0,875000	0,609375
	0,203125	-0,859375	0,578125
	0,187500	-0,843750	0,593750
	0,187500	-0,843750	0,625000
	0,187500	-0,875000	0,593750
	0,171875	-0,828125	0,609375
	0,156250	-0,812500	0,640625
	0,203125	-0,859375	0,593750
	0,156250	-0,843750	0,609375
	0,203125	-0,796875	0,640625
	0,171875	-0,859375	0,578125
	0,171875	-0,859375	0,578125
	0,187500	-0,843750	0,609375
	0,187500	-0,859375	0,593750
	0,187500	-0,875000	0,609375
	0,171875	-0,859375	0,593750
	0,203125	-0,859375	0,609375
	0,187500	-0,859375	0,609375
	0,187500	-0,843750	0,593750
	0,203125	-0,859375	0,578125
	0,203125	-0,843750	0,578125
	0,187500	-0,859375	0,609375
	0,203125	-0,875000	0,609375
	0,187500	-0,828125	0,609375
	0,203125	-0,843750	0,625000
	0,171875	-0,828125	0,593750
	0,218750	-0,812500	0,640625
	0,203125	-0,859375	0,593750
	0,234375	-0,843750	0,578125
	0,203125	-0,859375	0,578125
	0,171875	-0,875000	0,593750
	0,203125	-0,875000	0,625000
	0,187500	-0,890625	0,609375
	0,187500	-0,875000	0,640625
	0,171875	-0,859375	0,593750
	0,171875	-0,875000	0,593750
	0,203125	-0,843750	0,625000
	0,171875	-0,843750	0,609375
	0,187500	-0,890625	0,593750
	0,203125	-0,906250	0,609375
	0,187500	-0,890625	0,578125
	0,203125	-0,890625	0,578125
	0,187500	-0,890625	0,578125
	0,203125	-0,890625	0,578125
	0,187500	-0,875000	0,593750
	0,218750	-0,875000	0,578125
	0,203125	-0,890625	0,578125
	0,218750	-0,859375	0,578125
	0,156250	-0,875000	0,578125
	0,203125	-0,828125	0,578125
	0,187500	-0,843750	0,593750
	0,203125	-0,796875	0,593750
	0,218750	-0,843750	0,625000
	0,203125	-0,843750	0,640625
	0,187500	-0,843750	0,625000
	0,187500	-0,843750	0,656250
	0,203125	-0,828125	0,656250
	0,187500	-0,843750	0,640625
	0,203125	-0,859375	0,625000
	0,171875	-0,843750	0,625000
	0,171875	-0,828125	0,625000
	0,171875	-0,843750	0,609375
	0,171875	-0,828125	0,609375
	0,187500	-0,843750	0,593750
	0,203125	-0,843750	0,578125
	0,171875	-0,875000	0,609375
	0,203125	-0,843750	0,625000
	0,187500	-0,843750	0,609375
	0,156250	-0,843750	0,578125
	0,187500	-0,843750	0,562500
	0,203125	-0,843750	0,609375
	0,156250	-0,890625	0,562500
	0,187500	-0,843750	0,593750
	0,140625	-0,843750	0,562500
	0,171875	-0,859375	0,609375
	0,171875	-0,875000	0,609375
	0,171875	-0,859375	0,593750
	0,203125	-0,875000	0,593750
	0,171875	-0,843750	0,562500
	0,171875	-0,875000	0,562500
	0,187500	-0,875000	0,593750
	0,171875	-0,859375	0,593750
	0,171875	-0,859375	0,593750
	0,171875	-0,843750	0,593750
	0,187500	-0,859375	0,593750
	0,187500	-0,828125	0,593750
	0,218750	-0,812500	0,625000
	0,203125	-0,859375	0,593750
	0,187500	-0,859375	0,609375
	0,187500	-0,843750	0,609375
	0,187500	-0,859375	0,546875
	0,203125	-0,859375	0,593750
	0,218750	-0,859375	0,593750
	0,203125	-0,859375	0,593750
	0,171875	-0,859375	0,593750
	0,171875	-0,828125	0,609375
	0,203125	-0,843750	0,593750
	0,203125	-0,828125	0,625000
	0,171875	-0,875000	0,593750
	0,187500	-0,890625	0,578125
	0,203125	-0,859375	0,593750
	0,203125	-0,875000	0,593750
	0,156250	-0,875000	0,609375
	0,187500	-0,843750	0,578125
	0,187500	-0,859375	0,578125
	0,187500	-0,843750	0,578125
	0,218750	-0,890625	0,593750
	0,187500	-0,875000	0,578125
	0,187500	-0,859375	0,562500
	0,203125	-0,859375	0,593750
	0,203125	-0,843750	0,578125
	0,171875	-0,890625	0,593750
	0,171875	-0,875000	0,578125
	0,171875	-0,859375	0,562500
	0,187500	-0,875000	0,562500
	0,187500	-0,890625	0,578125
	0,234375	-0,843750	0,593750
	0,218750	-0,875000	0,562500
	0,171875	-0,875000	0,562500
	0,218750	-0,890625	0,578125
	0,187500	-0,875000	0,578125
	0,203125	-0,890625	0,593750
	0,218750	-0,875000	0,593750
	0,187500	-0,843750	0,578125
	0,187500	-0,859375	0,609375
	0,203125	-0,859375	0,593750
	0,187500	-0,859375	0,625000
	0,218750	-0,843750	0,609375
	0,203125	-0,843750	0,593750
	0,203125	-0,859375	0,578125
	0,234375	-0,843750	0,562500
	0,187500	-0,859375	0,562500
	0,203125	-0,906250	0,609375
	0,187500	-0,875000	0,593750
	0,203125	-0,906250	0,593750
	0,171875	-0,875000	0,515625
	0,187500	-0,859375	0,515625
	0,171875	-0,890625	0,500000
	0,187500	-0,875000	0,500000
	0,171875	-0,875000	0,500000
	0,187500	-0,875000	0,484375
	0,203125	-0,859375	0,546875
	0,218750	-0,875000	0,562500
	0,218750	-0,859375	0,531250
	0,218750	-0,843750	0,546875
	0,203125	-0,921875	0,578125
	0,218750	-0,875000	0,578125
	0,171875	-0,906250	0,546875
	0,203125	-0,906250	0,515625
	0,171875	-0,890625	0,546875
	0,171875	-0,890625	0,562500
	0,156250	-0,875000	0,578125
	0,171875	-0,875000	0,546875
	0,140625	-0,875000	0,531250
	0,140625	-0,906250	0,531250
	0,156250	-0,906250	0,546875
	0,187500	-0,890625	0,546875
	0,203125	-0,890625	0,515625
	0,187500	-0,906250	0,515625
	0,203125	-0,906250	0,500000
	0,203125	-0,937500	0,500000
	0,187500	-0,906250	0,500000
	0,187500	-0,906250	0,546875
	0,156250	-0,921875	0,515625
	0,171875	-0,890625	0,562500
	0,187500	-0,859375	0,593750
	0,203125	-0,812500	0,640625
	0,187500	-0,843750	0,640625
	0,171875	-0,859375	0,625000
	0,203125	-0,906250	0,562500
	0,187500	-0,906250	0,562500
	0,187500	-0,890625	0,578125
	0,171875	-0,906250	0,578125
	0,125000	-0,890625	0,593750
	0,140625	-0,890625	0,578125
	0,140625	-0,859375	0,562500
	0,156250	-0,828125	0,609375
	0,140625	-0,875000	0,578125
	0,140625	-0,859375	0,562500
	0,125000	-0,875000	0,593750
	0,140625	-0,828125	0,609375
	0,171875	-0,859375	0,578125
	0,156250	-0,843750	0,562500
	0,171875	-0,890625	0,531250
	0,187500	-0,921875	0,515625
	0,171875	-0,921875	0,515625
	0,156250	-0,921875	0,515625
	0,187500	-0,937500	0,515625
	0,171875	-0,921875	0,562500
	0,171875	-0,906250	0,546875
	0,171875	-0,875000	0,531250
	0,187500	-0,828125	0,546875
	0,187500	-0,875000	0,562500
	0,203125	-0,875000	0,593750
	0,234375	-0,875000	0,578125
	0,203125	-0,890625	0,578125
	0,234375	-0,859375	0,578125
	0,234375	-0,906250	0,578125
	0,234375	-0,890625	0,562500
	0,234375	-0,890625	0,593750
	0,218750	-0,859375	0,593750
	0,234375	-0,859375	0,578125
	0,234375	-0,875000	0,578125
	0,203125	-0,859375	0,578125
	0,203125	-0,859375	0,578125
	0,203125	-0,875000	0,562500
	0,250000	-0,875000	0,578125
	0,187500	-0,843750	0,562500
	0,218750	-0,859375	0,546875
	0,234375	-0,875000	0,609375
	0,203125	-0,890625	0,562500
	0,218750	-0,890625	0,531250
	0,234375	-0,875000	0,562500
	0,203125	-0,906250	0,578125
	0,218750	-0,906250	0,578125
	0,187500	-0,890625	0,578125
	0,203125	-0,890625	0,562500
	0,187500	-0,859375	0,578125
	0,171875	-0,859375	0,593750
	0,187500	-0,875000	0,578125
	0,171875	-0,843750	0,562500
	0,171875	-0,890625	0,531250
	0,203125	-0,859375	0,546875
	0,187500	-0,875000	0,562500
	0,187500	-0,859375	0,562500
	0,171875	-0,859375	0,578125
	0,218750	-0,859375	0,593750
	0,203125	-0,890625	0,593750
	0,187500	-0,906250	0,593750
	0,171875	-0,875000	0,593750
	0,171875	-0,859375	0,578125
	0,171875	-0,859375	0,562500
	0,171875	-0,843750	0,578125
	0,203125	-0,859375	0,578125
	0,203125	-0,859375	0,593750
	0,203125	-0,890625	0,578125
	0,218750	-0,859375	0,609375
	0,234375	-0,890625	0,593750
	0,203125	-0,875000	0,562500
	0,187500	-0,890625	0,546875
	0,187500	-0,875000	0,515625
	0,171875	-0,875000	0,546875
	0,156250	-0,890625	0,546875
	0,156250	-0,859375	0,578125
	0,171875	-0,859375	0,562500
	0,171875	-0,859375	0,578125
	0,171875	-0,890625	0,578125
	0,156250	-0,875000	0,562500
	0,187500	-0,875000	0,546875
	0,187500	-0,890625	0,562500
	0,171875	-0,890625	0,578125
	0,203125	-0,875000	0,562500
	0,203125	-0,875000	0,546875
	0,203125	-0,859375	0,578125
	0,187500	-0,875000	0,546875
	0,203125	-0,875000	0,578125
	0,234375	-0,843750	0,578125
	0,203125	-0,890625	0,546875
	0,187500	-0,859375	0,546875
	0,203125	-0,875000	0,562500
	0,187500	-0,875000	0,562500
	0,218750	-0,875000	0,578125
	0,203125	-0,859375	0,562500
	0,203125	-0,875000	0,562500
	0,187500	-0,890625	0,578125
	0,187500	-0,828125	0,562500
	0,218750	-0,859375	0,593750
	0,203125	-0,843750	0,562500
	0,203125	-0,875000	0,562500
	0,171875	-0,859375	0,562500
	0,156250	-0,875000	0,593750
	0,187500	-0,890625	0,562500
	0,140625	-0,875000	0,562500
	0,140625	-0,875000	0,562500
	0,171875	-0,843750	0,562500
	0,187500	-0,859375	0,578125
	0,187500	-0,859375	0,562500
	0,171875	-0,890625	0,562500
	0,171875	-0,890625	0,562500
	0,187500	-0,875000	0,578125
	0,156250	-0,937500	0,531250
	0,156250	-0,890625	0,546875
	0,156250	-0,906250	0,562500
	0,171875	-0,890625	0,546875
	0,171875	-0,859375	0,578125
	0,187500	-0,875000	0,578125
	0,203125	-0,859375	0,625000
	0,218750	-0,890625	0,578125
	0,203125	-0,875000	0,546875
	0,187500	-0,890625	0,546875
	0,203125	-0,906250	0,562500
	0,203125	-0,875000	0,578125
	0,203125	-0,875000	0,578125
	0,203125	-0,859375	0,562500
	0,187500	-0,859375	0,578125
	0,203125	-0,875000	0,578125
	0,218750	-0,875000	0,625000
	0,234375	-0,859375	0,578125
	0,187500	-0,875000	0,562500
	0,187500	-0,890625	0,578125
	0,203125	-0,859375	0,546875
	0,187500	-0,859375	0,546875
	0,171875	-0,875000	0,562500
	0,171875	-0,875000	0,578125
	0,203125	-0,859375	0,578125
	0,187500	-0,859375	0,578125
	0,187500	-0,875000	0,578125
	0,187500	-0,875000	0,562500
	0,187500	-0,859375	0,578125
	0,218750	-0,843750	0,593750
	0,171875	-0,828125	0,609375
	0,187500	-0,875000	0,625000
	0,187500	-0,843750	0,578125
	0,187500	-0,843750	0,562500
	0,187500	-0,859375	0,593750
	0,203125	-0,875000	0,593750
	0,234375	-0,843750	0,625000
	0,187500	-0,890625	0,593750
	0,187500	-0,890625	0,562500
	0,187500	-0,875000	0,593750
	0,218750	-0,875000	0,593750
	0,187500	-0,859375	0,562500
	0,171875	-0,859375	0,578125
	0,218750	-0,859375	0,562500
	0,187500	-0,875000	0,578125
	0,187500	-0,875000	0,562500
	0,203125	-0,843750	0,609375
	0,187500	-0,843750	0,593750
	0,171875	-0,875000	0,578125
	0,156250	-0,875000	0,578125
	0,187500	-0,875000	0,578125
	0,156250	-0,859375	0,609375
	0,171875	-0,859375	0,625000
	0,187500	-0,843750	0,625000
	0,156250	-0,859375	0,609375
	0,171875	-0,859375	0,593750
	0,187500	-0,843750	0,578125
	0,187500	-0,859375	0,593750
	0,187500	-0,875000	0,640625
	0,171875	-0,875000	0,625000
	0,171875	-0,859375	0,609375
	0,171875	-0,843750	0,593750
	0,156250	-0,875000	0,593750
	0,171875	-0,859375	0,593750
	0,156250	-0,843750	0,625000
	0,171875	-0,859375	0,593750
	0,218750	-0,828125	0,625000
	0,187500	-0,859375	0,609375
	0,171875	-0,875000	0,593750
	0,187500	-0,843750	0,578125
	0,187500	-0,875000	0,578125
	0,203125	-0,875000	0,593750
	0,203125	-0,859375	0,578125
	0,203125	-0,859375	0,625000
	0,203125	-0,875000	0,609375
	0,203125	-0,859375	0,609375
	0,203125	-0,859375	0,625000
	0,234375	-0,812500	0,640625
	0,234375	-0,843750	0,625000
	0,187500	-0,859375	0,593750
	0,187500	-0,859375	0,578125
	0,187500	-0,859375	0,578125
	0,203125	-0,843750	0,593750
	0,203125	-0,875000	0,578125
	0,203125	-0,859375	0,578125
	0,218750	-0,843750	0,593750
	0,250000	-0,843750	0,593750
	0,203125	-0,843750	0,578125
	0,187500	-0,843750	0,578125
	0,218750	-0,906250	0,593750
	0,187500	-0,859375	0,578125
	0,187500	-0,875000	0,578125
	0,187500	-0,843750	0,609375
	0,203125	-0,859375	0,562500
	0,218750	-0,843750	0,562500
	0,187500	-0,859375	0,578125
	0,250000	-0,828125	0,640625
	0,187500	-0,859375	0,593750
	0,187500	-0,859375	0,578125
	0,171875	-0,859375	0,593750
	0,140625	-0,859375	0,609375
	0,156250	-0,875000	0,609375
	0,156250	-0,859375	0,578125
	0,156250	-0,843750	0,609375
	0,140625	-0,843750	0,593750
	0,140625	-0,843750	0,593750
	0,140625	-0,843750	0,609375
	0,171875	-0,828125	0,625000
	0,093750	-0,890625	0,625000
	0,140625	-0,859375	0,609375
	0,140625	-0,859375	0,625000
	0,156250	-0,859375	0,625000
	0,171875	-0,875000	0,609375
	0,156250	-0,859375	0,593750
	0,171875	-0,859375	0,593750
	0,171875	-0,859375	0,578125
	0,187500	-0,812500	0,656250
	0,156250	-0,843750	0,609375
	0,187500	-0,859375	0,609375
	0,187500	-0,843750	0,625000
	0,203125	-0,859375	0,609375
	0,203125	-0,859375	0,625000
	0,203125	-0,875000	0,625000
	0,218750	-0,843750	0,609375
	0,203125	-0,843750	0,593750
	0,203125	-0,875000	0,578125
	0,234375	-0,843750	0,609375
	0,203125	-0,859375	0,593750
	0,203125	-0,875000	0,609375
	0,281250	-0,828125	0,625000
	0,218750	-0,875000	0,562500
	0,203125	-0,859375	0,609375
	0,203125	-0,859375	0,578125
	0,171875	-0,843750	0,593750
	0,218750	-0,859375	0,609375
	0,203125	-0,875000	0,609375
	0,218750	-0,859375	0,593750
	0,250000	-0,828125	0,625000
	0,218750	-0,828125	0,609375
	0,203125	-0,843750	0,593750
	0,203125	-0,843750	0,609375
	0,203125	-0,859375	0,593750
	0,187500	-0,843750	0,593750
	0,203125	-0,859375	0,593750
	0,187500	-0,859375	0,593750
	0,187500	-0,875000	0,609375
	0,218750	-0,843750	0,609375
	0,156250	-0,875000	0,625000
	0,203125	-0,859375	0,562500
	0,203125	-0,859375	0,593750
	0,156250	-0,859375	0,609375
	0,187500	-0,843750	0,578125
	0,156250	-0,859375	0,609375
	0,187500	-0,875000	0,593750
	0,171875	-0,859375	0,625000
	0,156250	-0,890625	0,578125
	0,203125	-0,812500	0,640625
	0,187500	-0,843750	0,578125
	0,187500	-0,828125	0,578125
	0,171875	-0,859375	0,593750
	0,187500	-0,828125	0,593750
	0,187500	-0,843750	0,625000
	0,187500	-0,843750	0,640625
	0,187500	-0,828125	0,625000
	0,187500	-0,812500	0,625000
	0,203125	-0,828125	0,625000
	0,187500	-0,843750	0,625000
	0,187500	-0,843750	0,640625
	0,187500	-0,828125	0,609375
	0,156250	-0,859375	0,625000
	0,203125	-0,828125	0,609375
	0,203125	-0,843750	0,609375
	0,187500	-0,875000	0,593750
	0,203125	-0,843750	0,625000
	0,218750	-0,843750	0,609375
	0,187500	-0,859375	0,609375
	0,234375	-0,828125	0,640625
	0,187500	-0,828125	0,593750
	0,203125	-0,843750	0,609375
	0,203125	-0,828125	0,609375
	0,203125	-0,828125	0,609375
	0,187500	-0,859375	0,593750
	0,187500	-0,875000	0,593750
	0,171875	-0,828125	0,625000
	0,156250	-0,843750	0,609375
	0,171875	-0,843750	0,625000
	0,218750	-0,828125	0,640625
	0,187500	-0,875000	0,625000
	0,187500	-0,843750	0,593750
	0,171875	-0,875000	0,578125
	0,187500	-0,875000	0,562500
	0,156250	-0,875000	0,578125
	0,171875	-0,875000	0,578125
	0,171875	-0,859375	0,578125
	0,187500	-0,859375	0,578125
	0,171875	-0,875000	0,578125
	0,171875	-0,859375	0,562500
	0,171875	-0,843750	0,578125
	0,203125	-0,843750	0,593750
	0,140625	-0,875000	0,609375
	0,187500	-0,875000	0,609375
	0,171875	-0,859375	0,625000
	0,187500	-0,843750	0,609375
	0,171875	-0,828125	0,609375
	0,171875	-0,859375	0,625000
	0,171875	-0,843750	0,609375
	0,203125	-0,796875	0,656250
	0,203125	-0,828125	0,625000
	0,203125	-0,828125	0,609375
	0,171875	-0,843750	0,593750
	0,187500	-0,828125	0,593750
	0,203125	-0,843750	0,593750
	0,187500	-0,796875	0,578125
	0,203125	-0,828125	0,593750
	0,171875	-0,843750	0,578125
	0,203125	-0,843750	0,593750
	0,171875	-0,828125	0,640625
	0,218750	-0,843750	0,593750
	0,187500	-0,843750	0,609375
	0,156250	-0,890625	0,593750
	0,218750	-0,890625	0,609375
	0,187500	-0,875000	0,609375
	0,171875	-0,875000	0,593750
	0,203125	-0,843750	0,625000
	0,218750	-0,843750	0,625000
	0,218750	-0,843750	0,671875
	0,218750	-0,828125	0,640625
	0,250000	-0,812500	0,656250
	0,250000	-0,796875	0,656250
	0,265625	-0,765625	0,656250
	0,281250	-0,781250	0,671875
	0,187500	-0,828125	0,625000
	0,203125	-0,843750	0,625000
	0,187500	-0,843750	0,625000
	0,187500	-0,828125	0,593750
	0,156250	-0,843750	0,625000
	0,234375	-0,828125	0,609375
	0,203125	-0,859375	0,593750
	0,203125	-0,843750	0,578125
	0,187500	-0,859375	0,593750
	0,203125	-0,859375	0,593750
	0,203125	-0,859375	0,578125
	0,203125	-0,890625	0,562500
	0,187500	-0,859375	0,562500
	0,187500	-0,843750	0,578125
	0,171875	-0,843750	0,609375
	0,187500	-0,828125	0,640625
	0,187500	-0,843750	0,609375
	0,171875	-0,843750	0,625000
	0,171875	-0,812500	0,609375
	0,156250	-0,843750	0,578125
	0,171875	-0,828125	0,593750
	0,171875	-0,828125	0,609375
	0,171875	-0,843750	0,609375
	0,218750	-0,828125	0,609375
	0,171875	-0,843750	0,625000
	0,156250	-0,843750	0,656250
	0,203125	-0,859375	0,625000
	0,187500	-0,843750	0,625000
	0,203125	-0,859375	0,609375
	0,203125	-0,859375	0,625000
	0,218750	-0,859375	0,609375
	0,203125	-0,843750	0,625000
	0,218750	-0,843750	0,609375
	0,187500	-0,859375	0,625000
	0,187500	-0,828125	0,609375
	0,234375	-0,812500	0,625000
	0,203125	-0,828125	0,593750
	0,218750	-0,875000	0,609375
	0,203125	-0,859375	0,609375
	0,187500	-0,843750	0,593750
	0,218750	-0,843750	0,625000
	0,187500	-0,859375	0,625000
	0,187500	-0,859375	0,593750
	0,187500	-0,828125	0,609375
	0,171875	-0,859375	0,609375
	0,171875	-0,828125	0,609375
	0,203125	-0,812500	0,593750
	0,187500	-0,859375	0,609375
	0,156250	-0,859375	0,593750
	0,156250	-0,843750	0,609375
	0,171875	-0,859375	0,609375
	0,171875	-0,843750	0,625000
	0,156250	-0,875000	0,625000
	0,187500	-0,875000	0,609375
	0,187500	-0,875000	0,640625
	0,187500	-0,843750	0,609375
	0,156250	-0,843750	0,609375
	0,187500	-0,843750	0,609375
	0,187500	-0,859375	0,609375
	0,171875	-0,843750	0,609375
	0,187500	-0,843750	0,609375
	0,171875	-0,843750	0,609375
	0,203125	-0,843750	0,593750
	0,187500	-0,859375	0,593750
	0,203125	-0,843750	0,593750
	0,234375	-0,828125	0,640625
	0,203125	-0,843750	0,609375
	0,218750	-0,859375	0,609375
	0,203125	-0,859375	0,609375
	0,203125	-0,859375	0,593750
	0,218750	-0,843750	0,562500
	0,218750	-0,859375	0,609375
	0,218750	-0,859375	0,578125
	0,218750	-0,859375	0,578125
	0,187500	-0,875000	0,609375
	0,218750	-0,843750	0,609375
	0,234375	-0,843750	0,609375
	0,203125	-0,843750	0,593750
	0,218750	-0,843750	0,593750
	0,234375	-0,843750	0,625000
	0,171875	-0,843750	0,640625
	0,218750	-0,828125	0,593750
	0,234375	-0,859375	0,609375
	0,187500	-0,859375	0,640625
	0,187500	-0,843750	0,625000
	0,187500	-0,843750	0,609375
	0,203125	-0,859375	0,609375
	0,218750	-0,843750	0,625000
	0,218750	-0,859375	0,625000
	0,203125	-0,859375	0,609375
	0,187500	-0,843750	0,562500
	0,187500	-0,843750	0,578125
	0,187500	-0,843750	0,593750
	0,187500	-0,843750	0,593750
	0,156250	-0,875000	0,593750
	0,218750	-0,828125	0,593750
	0,171875	-0,828125	0,593750
	0,171875	-0,843750	0,562500
	0,218750	-0,796875	0,593750
	0,171875	-0,890625	0,609375
	0,171875	-0,843750	0,609375
	0,171875	-0,843750	0,609375
	0,171875	-0,875000	0,578125
	0,171875	-0,859375	0,562500
	0,187500	-0,859375	0,562500
	0,203125	-0,859375	0,609375
	0,203125	-0,843750	0,593750
	0,203125	-0,859375	0,562500
	0,203125	-0,843750	0,593750
	0,171875	-0,906250	0,562500
	0,187500	-0,859375	0,593750
	0,203125	-0,859375	0,609375
	0,187500	-0,859375	0,578125
	0,187500	-0,843750	0,578125
	0,187500	-0,890625	0,593750
	0,218750	-0,843750	0,578125
	0,218750	-0,859375	0,578125
	0,234375	-0,859375	0,593750
	0,218750	-0,875000	0,593750
	0,218750	-0,875000	0,562500
	0,234375	-0,875000	0,546875
	0,203125	-0,890625	0,562500
	0,187500	-0,843750	0,609375
	0,203125	-0,875000	0,593750
	0,203125	-0,875000	0,625000
	0,234375	-0,812500	0,593750
	0,171875	-0,843750	0,609375
	0,171875	-0,843750	0,609375
	0,187500	-0,843750	0,593750
	0,187500	-0,890625	0,578125
	0,156250	-0,875000	0,609375
	0,203125	-0,890625	0,593750
	0,156250	-0,859375	0,578125
	0,187500	-0,859375	0,593750
	0,171875	-0,875000	0,609375
	0,187500	-0,828125	0,593750
	0,187500	-0,828125	0,593750
	0,171875	-0,859375	0,593750
	0,156250	-0,875000	0,593750
	0,156250	-0,875000	0,593750
	0,171875	-0,875000	0,609375
	0,187500	-0,843750	0,609375
	0,171875	-0,859375	0,578125
	0,187500	-0,859375	0,593750
	0,203125	-0,890625	0,609375
	0,234375	-0,828125	0,625000
	0,203125	-0,843750	0,562500
	0,218750	-0,875000	0,593750
	0,187500	-0,859375	0,562500
	0,218750	-0,859375	0,578125
	0,187500	-0,859375	0,578125
	0,187500	-0,875000	0,609375
	0,171875	-0,859375	0,609375
	0,203125	-0,859375	0,593750
	0,203125	-0,859375	0,593750
	0,218750	-0,843750	0,625000
	0,203125	-0,843750	0,593750
	0,187500	-0,875000	0,578125
	0,203125	-0,875000	0,593750
	0,187500	-0,890625	0,546875
	0,187500	-0,859375	0,578125
	0,187500	-0,859375	0,578125
	0,187500	-0,843750	0,593750
	0,187500	-0,843750	0,593750
	0,187500	-0,875000	0,609375
	0,203125	-0,859375	0,593750
	0,203125	-0,875000	0,640625
	0,140625	-0,859375	0,593750
	0,171875	-0,859375	0,609375
	0,187500	-0,843750	0,578125
	0,171875	-0,859375	0,593750
	0,171875	-0,843750	0,562500
	0,187500	-0,859375	0,593750
	0,187500	-0,875000	0,593750
	0,203125	-0,875000	0,578125
	0,218750	-0,843750	0,625000
	0,171875	-0,859375	0,578125
	0,187500	-0,875000	0,578125
	0,156250	-0,875000	0,546875
	0,187500	-0,859375	0,578125
	0,187500	-0,875000	0,593750
	0,187500	-0,843750	0,578125
	0,187500	-0,859375	0,578125
	0,203125	-0,859375	0,562500
	0,187500	-0,875000	0,593750
	0,203125	-0,828125	0,593750
	0,187500	-0,859375	0,562500
	0,187500	-0,875000	0,562500
	0,203125	-0,859375	0,578125
	0,203125	-0,859375	0,593750
	0,187500	-0,859375	0,593750
	0,171875	-0,859375	0,578125
	0,203125	-0,859375	0,578125
	0,203125	-0,875000	0,562500
	0,187500	-0,859375	0,593750
	0,156250	-0,843750	0,578125
	0,218750	-0,828125	0,609375
	0,203125	-0,859375	0,578125
	0,234375	-0,828125	0,609375
	0,203125	-0,843750	0,562500
	0,187500	-0,890625	0,578125
	0,187500	-0,875000	0,593750
	0,203125	-0,875000	0,593750
	0,171875	-0,859375	0,578125
	0,187500	-0,859375	0,593750
	0,218750	-0,828125	0,609375
	0,171875	-0,859375	0,593750
	0,203125	-0,859375	0,609375
	0,171875	-0,890625	0,578125
	0,171875	-0,859375	0,593750
	0,171875	-0,875000	0,578125
	0,171875	-0,859375	0,593750
	0,187500	-0,875000	0,593750
	0,187500	-0,859375	0,593750
	0,171875	-0,875000	0,593750
	0,203125	-0,843750	0,625000
	0,203125	-0,859375	0,593750
	0,187500	-0,875000	0,578125
	0,171875	-0,859375	0,578125
	0,203125	-0,859375	0,562500
	0,187500	-0,890625	0,593750
	0,187500	-0,859375	0,578125
	0,187500	-0,859375	0,578125
	0,187500	-0,859375	0,593750
	0,187500	-0,843750	0,578125
	0,187500	-0,875000	0,593750
	0,187500	-0,875000	0,578125
	0,171875	-0,875000	0,578125
	0,203125	-0,859375	0,609375
	0,218750	-0,859375	0,593750
	0,187500	-0,843750	0,578125
	0,187500	-0,875000	0,593750
	0,187500	-0,859375	0,593750
	0,187500	-0,875000	0,578125
	0,187500	-0,875000	0,578125
	0,218750	-0,828125	0,609375
	0,203125	-0,859375	0,562500
	0,171875	-0,859375	0,578125
	0,187500	-0,875000	0,562500
	0,187500	-0,843750	0,593750
	0,203125	-0,859375	0,593750
	0,203125	-0,859375	0,578125
	0,187500	-0,859375	0,578125
	0,203125	-0,875000	0,593750
	0,203125	-0,859375	0,593750
	0,250000	-0,843750	0,625000
	0,171875	-0,875000	0,593750
	0,187500	-0,875000	0,578125
	0,203125	-0,875000	0,578125
	0,203125	-0,875000	0,578125
	0,171875	-0,859375	0,578125
	0,218750	-0,875000	0,593750
	0,187500	-0,875000	0,578125
	0,171875	-0,890625	0,593750
	0,203125	-0,859375	0,578125
	0,187500	-0,843750	0,578125
	0,187500	-0,859375	0,593750
	0,171875	-0,875000	0,593750
	0,187500	-0,875000	0,578125
	0,171875	-0,843750	0,562500
	0,171875	-0,875000	0,593750
	0,187500	-0,843750	0,593750
	0,171875	-0,875000	0,593750
	0,187500	-0,859375	0,578125
	0,187500	-0,875000	0,578125
	0,203125	-0,875000	0,609375
	0,171875	-0,875000	0,562500
	0,187500	-0,875000	0,578125
	0,187500	-0,843750	0,562500
	0,187500	-0,890625	0,562500
	0,171875	-0,890625	0,593750
	0,187500	-0,859375	0,578125
	0,203125	-0,859375	0,562500
	0,187500	-0,859375	0,593750
	0,171875	-0,859375	0,578125
	0,218750	-0,843750	0,593750
	0,203125	-0,875000	0,593750
	0,187500	-0,859375	0,593750
	0,171875	-0,859375	0,593750
	0,187500	-0,875000	0,593750
	0,203125	-0,875000	0,593750
	0,187500	-0,875000	0,578125
	0,187500	-0,859375	0,578125
	0,203125	-0,875000	0,609375
	0,187500	-0,875000	0,578125
	0,203125	-0,890625	0,578125
	0,203125	-0,875000	0,593750
	0,187500	-0,859375	0,593750
	0,156250	-0,875000	0,593750
	0,171875	-0,859375	0,578125
	0,171875	-0,875000	0,578125
	0,203125	-0,875000	0,578125
	0,171875	-0,875000	0,578125
	0,171875	-0,859375	0,562500
	0,187500	-0,859375	0,578125
	0,218750	-0,843750	0,625000
	0,171875	-0,859375	0,609375
	0,187500	-0,859375	0,593750
	0,171875	-0,859375	0,578125
	0,203125	-0,875000	0,609375
	0,203125	-0,859375	0,578125
	0,218750	-0,859375	0,578125
	0,187500	-0,843750	0,593750
	0,203125	-0,859375	0,578125
	0,203125	-0,875000	0,593750
	0,203125	-0,875000	0,609375
	0,203125	-0,843750	0,625000
	0,203125	-0,859375	0,578125
	0,171875	-0,843750	0,609375
	0,187500	-0,875000	0,593750
	0,203125	-0,859375	0,562500
	0,203125	-0,859375	0,593750
	0,171875	-0,890625	0,578125
	0,187500	-0,890625	0,562500
	0,203125	-0,859375	0,562500
	0,203125	-0,875000	0,562500
	0,171875	-0,843750	0,562500
	0,218750	-0,875000	0,578125
	0,187500	-0,875000	0,593750
	0,187500	-0,890625	0,593750
	0,171875	-0,843750	0,578125
	0,187500	-0,859375	0,562500
	0,187500	-0,859375	0,609375
	0,187500	-0,843750	0,593750
	0,218750	-0,875000	0,578125
	0,234375	-0,859375	0,625000
	0,218750	-0,890625	0,578125
	0,156250	-0,875000	0,593750
	0,187500	-0,859375	0,609375
	0,203125	-0,859375	0,578125
	0,187500	-0,875000	0,609375
	0,171875	-0,859375	0,609375
	0,187500	-0,843750	0,593750
	0,187500	-0,859375	0,593750
	0,203125	-0,859375	0,593750
	0,203125	-0,859375	0,609375
	0,203125	-0,843750	0,609375
	0,187500	-0,843750	0,578125
	0,203125	-0,859375	0,593750
	0,156250	-0,859375	0,578125
	0,187500	-0,843750	0,578125
	0,187500	-0,859375	0,578125
	0,187500	-0,843750	0,562500
	0,171875	-0,859375	0,609375
	0,171875	-0,875000	0,625000
	0,171875	-0,843750	0,578125
	0,187500	-0,875000	0,609375
	0,171875	-0,859375	0,625000
	0,187500	-0,843750	0,609375
	0,187500	-0,859375	0,593750
	0,203125	-0,843750	0,578125
	0,187500	-0,843750	0,593750
	0,187500	-0,859375	0,578125
	0,187500	-0,859375	0,609375
	0,187500	-0,843750	0,609375
	0,234375	-0,843750	0,609375
	0,187500	-0,875000	0,609375
	0,171875	-0,890625	0,593750
	0,187500	-0,875000	0,609375
	0,203125	-0,859375	0,578125
	0,203125	-0,875000	0,593750
	0,187500	-0,859375	0,593750
	0,203125	-0,859375	0,593750
	0,187500	-0,875000	0,593750
	0,203125	-0,890625	0,593750
	0,171875	-0,828125	0,609375
	0,203125	-0,812500	0,625000
	0,203125	-0,843750	0,593750
	0,171875	-0,843750	0,593750
	0,171875	-0,859375	0,625000
	0,187500	-0,859375	0,609375
	0,187500	-0,843750	0,609375
	0,203125	-0,875000	0,593750
	0,187500	-0,859375	0,593750
	0,187500	-0,859375	0,609375
	0,187500	-0,828125	0,609375
	0,187500	-0,843750	0,593750
	0,187500	-0,859375	0,593750
	0,187500	-0,859375	0,593750
	0,171875	-0,859375	0,578125
	0,171875	-0,859375	0,625000
	0,171875	-0,859375	0,609375
	0,187500	-0,843750	0,593750
	0,187500	-0,859375	0,578125
	0,203125	-0,828125	0,593750
	0,203125	-0,812500	0,625000
	0,218750	-0,859375	0,609375
	0,171875	-0,828125	0,593750
	0,187500	-0,859375	0,609375
	0,171875	-0,843750	0,578125
	0,187500	-0,859375	0,593750
	0,203125	-0,859375	0,593750
	0,187500	-0,859375	0,578125
	0,187500	-0,875000	0,593750
	0,187500	-0,859375	0,593750
	0,203125	-0,843750	0,578125
	0,203125	-0,828125	0,640625
	0,187500	-0,843750	0,578125
	0,218750	-0,828125	0,593750
	0,203125	-0,859375	0,593750
	0,187500	-0,859375	0,578125
	0,187500	-0,843750	0,609375
	0,187500	-0,843750	0,625000
	0,234375	-0,859375	0,578125
	0,203125	-0,859375	0,609375
	0,187500	-0,843750	0,609375
	0,187500	-0,828125	0,593750
	0,171875	-0,843750	0,609375
	0,187500	-0,875000	0,609375
	0,187500	-0,828125	0,625000
	0,187500	-0,828125	0,578125
	0,171875	-0,859375	0,593750
	0,187500	-0,859375	0,609375
	0,187500	-0,859375	0,609375
	0,171875	-0,843750	0,609375
	0,218750	-0,828125	0,656250
	0,218750	-0,843750	0,593750
	0,203125	-0,875000	0,578125
	0,187500	-0,859375	0,562500
	0,203125	-0,859375	0,593750
	0,171875	-0,875000	0,593750
	0,203125	-0,859375	0,609375
	0,171875	-0,859375	0,609375
	0,171875	-0,859375	0,578125
	0,171875	-0,828125	0,593750
	0,218750	-0,875000	0,609375
	0,218750	-0,843750	0,640625
	0,171875	-0,859375	0,593750
	0,187500	-0,843750	0,609375
	0,218750	-0,843750	0,593750
	0,203125	-0,859375	0,609375
	0,203125	-0,843750	0,593750
	0,171875	-0,859375	0,625000
	0,187500	-0,859375	0,625000
	0,187500	-0,890625	0,609375
	0,234375	-0,812500	0,609375
	0,156250	-0,843750	0,578125
	0,187500	-0,828125	0,593750
	0,203125	-0,843750	0,609375
	0,203125	-0,875000	0,609375
	0,187500	-0,843750	0,593750
	0,203125	-0,859375	0,593750
	0,171875	-0,859375	0,609375
	0,203125	-0,875000	0,609375
	0,171875	-0,843750	0,609375
	0,203125	-0,859375	0,671875
	0,187500	-0,843750	0,578125
	0,203125	-0,859375	0,609375
	0,171875	-0,828125	0,593750
	0,171875	-0,843750	0,593750
	0,203125	-0,859375	0,593750
	0,171875	-0,843750	0,625000
	0,187500	-0,843750	0,593750
	0,187500	-0,843750	0,609375
	0,218750	-0,843750	0,593750
	0,203125	-0,859375	0,609375
	0,250000	-0,796875	0,656250
	0,187500	-0,843750	0,609375
	0,171875	-0,828125	0,609375
	0,203125	-0,859375	0,593750
	0,203125	-0,843750	0,578125
	0,171875	-0,875000	0,593750
	0,218750	-0,859375	0,609375
	0,171875	-0,859375	0,609375
	0,187500	-0,890625	0,609375
	0,218750	-0,843750	0,625000
	0,203125	-0,859375	0,609375
	0,171875	-0,875000	0,578125
	0,203125	-0,843750	0,593750
	0,203125	-0,859375	0,625000
	0,187500	-0,859375	0,593750
	0,187500	-0,843750	0,593750
	0,187500	-0,843750	0,593750
	0,187500	-0,859375	0,625000
	0,187500	-0,843750	0,609375
	0,203125	-0,828125	0,609375
	0,203125	-0,843750	0,656250
	0,187500	-0,828125	0,625000
	0,187500	-0,843750	0,609375
	0,171875	-0,859375	0,593750
	0,187500	-0,828125	0,609375
	0,171875	-0,843750	0,609375
	0,187500	-0,859375	0,593750
	0,187500	-0,828125	0,593750
	0,203125	-0,859375	0,593750
	0,187500	-0,843750	0,609375
	0,218750	-0,843750	0,593750
	0,203125	-0,828125	0,578125
	0,203125	-0,890625	0,578125
	0,187500	-0,859375	0,593750
	0,171875	-0,828125	0,625000
	0,203125	-0,859375	0,625000
	0,203125	-0,859375	0,609375
	0,187500	-0,828125	0,593750
	0,187500	-0,843750	0,609375
	0,234375	-0,828125	0,625000
	0,187500	-0,843750	0,593750
	0,187500	-0,859375	0,593750
	0,203125	-0,859375	0,609375
	0,187500	-0,843750	0,609375
	0,171875	-0,859375	0,609375
	0,203125	-0,859375	0,609375
	0,203125	-0,859375	0,593750
	0,187500	-0,843750	0,609375
	0,187500	-0,859375	0,593750
	0,218750	-0,796875	0,640625
	0,203125	-0,828125	0,625000
	0,156250	-0,828125	0,593750
	0,203125	-0,843750	0,625000
	0,187500	-0,859375	0,609375
	0,187500	-0,843750	0,625000
	0,218750	-0,843750	0,593750
	0,203125	-0,859375	0,625000
	0,187500	-0,859375	0,578125
	0,218750	-0,843750	0,625000
	0,203125	-0,843750	0,593750
	0,187500	-0,828125	0,609375
	0,187500	-0,843750	0,578125
	0,203125	-0,859375	0,609375
	0,203125	-0,828125	0,593750
	0,171875	-0,859375	0,593750
	0,187500	-0,843750	0,593750
	0,171875	-0,828125	0,609375
	0,187500	-0,875000	0,609375
	0,187500	-0,859375	0,625000
	0,234375	-0,828125	0,625000
	0,187500	-0,875000	0,609375
	0,187500	-0,859375	0,625000
	0,203125	-0,859375	0,625000
	0,187500	-0,828125	0,593750
	0,187500	-0,875000	0,593750
	0,187500	-0,859375	0,609375
	0,187500	-0,843750	0,609375
	0,187500	-0,843750	0,609375
	0,171875	-0,843750	0,578125
	0,250000	-0,828125	0,593750
	0,281250	-0,812500	0,687500
	0,218750	-0,781250	0,640625
	0,203125	-0,859375	0,578125
	0,171875	-0,859375	0,593750
	0,187500	-0,875000	0,609375
	0,187500	-0,859375	0,593750
	0,187500	-0,859375	0,609375
	0,203125	-0,859375	0,609375
	0,187500	-0,843750	0,593750
	0,171875	-0,828125	0,609375
	0,187500	-0,859375	0,593750
	0,187500	-0,859375	0,609375
	0,171875	-0,843750	0,625000
	0,171875	-0,875000	0,593750
	0,187500	-0,859375	0,593750
	0,171875	-0,843750	0,578125
	0,203125	-0,843750	0,593750
	0,187500	-0,843750	0,609375
	0,187500	-0,859375	0,593750
	0,218750	-0,828125	0,609375
	0,171875	-0,859375	0,593750
	0,187500	-0,890625	0,609375
	0,171875	-0,859375	0,578125
	0,187500	-0,875000	0,609375
	0,203125	-0,859375	0,593750
	0,171875	-0,859375	0,562500
	0,187500	-0,843750	0,625000
	0,171875	-0,859375	0,593750
	0,187500	-0,859375	0,578125
	0,203125	-0,828125	0,625000
	0,187500	-0,859375	0,625000
	0,187500	-0,859375	0,609375
	0,171875	-0,859375	0,578125
	0,187500	-0,859375	0,625000
	0,218750	-0,843750	0,593750
	0,203125	-0,875000	0,625000
	0,187500	-0,859375	0,625000
	0,218750	-0,859375	0,609375
	0,187500	-0,875000	0,593750
	0,187500	-0,859375	0,593750
	0,171875	-0,843750	0,593750
	0,187500	-0,875000	0,593750
	0,187500	-0,875000	0,593750
	0,171875	-0,859375	0,578125
	0,187500	-0,828125	0,578125
	0,187500	-0,843750	0,609375
	0,187500	-0,890625	0,593750
	0,187500	-0,859375	0,609375
	0,203125	-0,859375	0,578125
	0,218750	-0,828125	0,625000
	0,171875	-0,859375	0,593750
	0,171875	-0,843750	0,593750
	0,187500	-0,843750	0,609375
	0,187500	-0,859375	0,593750
	0,187500	-0,843750	0,609375
	0,171875	-0,859375	0,609375
	0,187500	-0,875000	0,578125
	0,187500	-0,859375	0,578125
	0,203125	-0,859375	0,593750
	0,203125	-0,843750	0,625000
	0,187500	-0,859375	0,625000
	0,187500	-0,843750	0,593750
	0,218750	-0,812500	0,640625
	0,203125	-0,843750	0,609375
	0,203125	-0,859375	0,578125
	0,171875	-0,859375	0,578125
	0,234375	-0,859375	0,578125
	0,203125	-0,843750	0,593750
	0,187500	-0,843750	0,578125
	0,187500	-0,843750	0,578125
	0,187500	-0,859375	0,609375
	0,203125	-0,859375	0,578125
	0,203125	-0,875000	0,593750
	0,187500	-0,828125	0,609375
	0,171875	-0,875000	0,609375
	0,203125	-0,875000	0,593750
	0,187500	-0,875000	0,609375
	0,171875	-0,859375	0,593750
	0,187500	-0,875000	0,578125
	0,218750	-0,812500	0,640625
	0,187500	-0,859375	0,578125
	0,203125	-0,859375	0,593750
	0,187500	-0,875000	0,625000
	0,187500	-0,859375	0,593750
	0,187500	-0,859375	0,609375
	0,203125	-0,875000	0,609375
	0,203125	-0,875000	0,593750
	0,203125	-0,859375	0,593750
	0,203125	-0,859375	0,593750
	0,218750	-0,828125	0,609375
	0,234375	-0,859375	0,609375
	0,171875	-0,859375	0,593750
	0,187500	-0,875000	0,593750
	0,203125	-0,859375	0,609375
	0,171875	-0,859375	0,593750
	0,218750	-0,843750	0,593750
	0,187500	-0,875000	0,593750
	0,203125	-0,843750	0,578125
	0,187500	-0,875000	0,578125
	0,187500	-0,859375	0,593750
	0,187500	-0,843750	0,593750
	0,187500	-0,875000	0,593750
	0,218750	-0,859375	0,593750
	0,203125	-0,828125	0,609375
	0,187500	-0,843750	0,593750
	0,187500	-0,859375	0,593750
	0,203125	-0,859375	0,593750
	0,187500	-0,859375	0,593750
	0,187500	-0,859375	0,578125
	0,203125	-0,828125	0,593750
	0,203125	-0,859375	0,609375
	0,187500	-0,859375	0,609375
	0,187500	-0,843750	0,578125
	0,187500	-0,859375	0,593750
	0,203125	-0,843750	0,609375
	0,187500	-0,875000	0,609375
	0,171875	-0,843750	0,609375
	0,203125	-0,859375	0,593750
	0,171875	-0,859375	0,609375
	0,187500	-0,859375	0,609375
	0,203125	-0,859375	0,625000
	0,203125	-0,859375	0,578125
	0,156250	-0,843750	0,578125
	0,187500	-0,843750	0,609375
	0,187500	-0,859375	0,593750
	0,187500	-0,859375	0,593750
	0,203125	-0,859375	0,593750
	0,171875	-0,859375	0,609375
	0,187500	-0,859375	0,593750
	0,234375	-0,828125	0,625000
	0,187500	-0,859375	0,593750
	0,203125	-0,875000	0,625000
	0,187500	-0,828125	0,609375
	0,203125	-0,843750	0,609375
	0,203125	-0,843750	0,578125
	0,187500	-0,859375	0,578125
	0,203125	-0,843750	0,609375
	0,187500	-0,843750	0,593750
	0,171875	-0,859375	0,593750
	0,203125	-0,828125	0,593750
	0,187500	-0,828125	0,593750
	0,187500	-0,843750	0,609375
	0,187500	-0,843750	0,609375
	0,203125	-0,859375	0,578125
	0,171875	-0,859375	0,593750
	0,171875	-0,859375	0,609375
	0,187500	-0,843750	0,578125
	0,187500	-0,859375	0,593750
