	-0,046875	-0,046875	0,140625
	-0,000000	-0,265625	0,093750
	0,093750	-0,031250	-0,156250
	0,140625	-0,046875	-0,578125
	0,015625	-0,171875	-1,406250
	0,125000	-1,312500	-4,203125
	0,546875	-3,984375	-3,453125
	1,125000	-7,593750	1,875000
	0,328125	-7,984375	-0,843750
	0,546875	-5,250000	-3,812500
	0,296875	-3,484375	-2,890625
	0,125000	-2,781250	-1,578125
	-0,031250	-2,656250	-1,078125
	-0,046875	-1,812500	-1,078125
	-0,062500	-1,453125	-0,953125
	-0,031250	-1,281250	-0,718750
	0,031250	-1,093750	-0,609375
	0,046875	-0,921875	-0,562500
	0,078125	-0,640625	-0,328125
	0,078125	-0,500000	-0,203125
	0,062500	-0,406250	-0,093750
	0,062500	-0,437500	0,031250
	0,078125	-0,234375	0,140625
	0,062500	-0,171875	0,125000
	0,078125	-0,093750	0,093750
	0,125000	-0,046875	-0,000000
	0,187500	-0,031250	-0,296875
	0,234375	0,031250	-0,468750
	0,218750	0,062500	-0,609375
	0,187500	0,109375	-0,640625
	0,062500	0,234375	-0,625000
	0,078125	0,312500	-0,500000
	0,015625	0,234375	-0,390625
	-0,000000	0,218750	-0,296875
	0,015625	0,187500	-0,234375
	0,015625	0,156250	-0,093750
	-0,000000	0,109375	-0,046875
	0,015625	0,125000	-0,015625
	0,015625	0,093750	0,015625
	-0,031250	0,078125	0,062500
	-0,046875	0,062500	0,109375
	-0,031250	0,062500	0,109375
	-0,031250	0,078125	0,093750
	-0,062500	0,046875	0,140625
	-0,046875	0,046875	0,140625
	-0,046875	-0,000000	0,156250
	-0,046875	-0,000000	0,156250
	0,015625	-0,031250	0,125000
	0,046875	-0,031250	0,093750
	0,109375	-0,015625	-0,000000
	0,203125	-0,015625	-0,078125
	0,296875	-0,015625	-0,265625
	0,078125	-0,203125	-1,156250
	-0,031250	-0,328125	-1,765625
	-0,062500	-0,562500	-2,703125
	-0,000000	-1,156250	-3,843750
	-0,531250	-7,953125	2,265625
	-0,359375	-7,984375	-0,859375
	0,781250	-7,375000	-3,156250
	0,656250	-4,984375	-4,062500
	0,140625	-3,015625	-1,671875
	0,203125	-3,000000	-1,046875
	0,140625	-2,687500	-0,953125
	0,062500	-2,218750	-1,000000
	0,062500	-1,390625	-0,640625
	0,062500	-1,140625	-0,437500
	0,015625	-0,859375	-0,296875
	0,031250	-0,718750	-0,250000
	0,015625	-0,562500	-0,218750
	0,015625	-0,265625	-0,000000
	0,046875	-0,171875	0,109375
	0,062500	-0,109375	0,171875
	0,093750	-0,140625	0,187500
	0,062500	-0,031250	0,265625
	0,062500	-0,031250	0,234375
	0,046875	-0,015625	0,218750
	0,078125	-0,015625	0,031250
	0,156250	0,015625	-0,281250
	0,078125	0,046875	-0,609375
	-0,015625	0,078125	-0,734375
	-0,000000	0,125000	-0,734375
	0,062500	0,171875	-0,500000
	0,031250	0,218750	-0,390625
	0,031250	0,187500	-0,281250
	0,046875	0,171875	-0,171875
	0,031250	0,156250	-0,093750
	0,031250	0,125000	0,031250
	-0,000000	0,109375	0,062500
	-0,015625	0,062500	0,093750
	-0,015625	0,062500	0,109375
	-0,046875	0,046875	0,093750
	-0,031250	0,078125	0,109375
	-0,031250	0,031250	0,046875
	-0,046875	0,046875	0,015625
	-0,015625	0,062500	0,015625
	-0,046875	-0,000000	-0,015625
	-0,015625	-0,000000	-0,015625
	0,015625	-0,031250	-0,031250
	0,062500	-0,000000	-0,171875
	0,125000	-0,031250	-0,343750
	0,156250	-0,109375	-0,671875
	0,156250	-0,171875	-1,109375
	0,125000	-0,281250	-1,468750
	-0,093750	-0,484375	-2,406250
	-0,015625	-0,828125	-3,156250
	0,640625	-2,421875	-2,187500
	1,296875	-6,812500	3,062500
	0,515625	-7,984375	0,125000
	0,593750	-6,578125	-2,875000
	0,406250	-3,906250	-3,359375
	0,046875	-2,968750	-2,156250
	-0,093750	-2,390625	-0,812500
	0,015625	-2,140625	-0,796875
	0,062500	-1,796875	-0,828125
	0,062500	-1,437500	-0,750000
	0,046875	-1,031250	-0,515625
	0,078125	-0,859375	-0,437500
	0,125000	-0,671875	-0,296875
	0,125000	-0,531250	-0,109375
	0,125000	-0,515625	0,062500
	0,031250	-0,406250	0,015625
	0,093750	-0,359375	-0,015625
	0,078125	-0,328125	-0,093750
	0,031250	-0,234375	-0,171875
	-0,000000	-0,078125	-0,312500
	-0,000000	-0,062500	-0,437500
	-0,031250	0,015625	-0,484375
	-0,000000	0,015625	-0,515625
	-0,015625	0,156250	-0,375000
	0,015625	0,171875	-0,296875
	0,031250	0,250000	-0,187500
	0,046875	0,250000	-0,187500
	0,062500	0,171875	-0,125000
	0,046875	0,171875	-0,078125
	0,046875	0,203125	-0,078125
	0,046875	0,171875	-0,046875
	0,046875	0,171875	-0,046875
	0,046875	0,187500	-0,015625
	-0,000000	0,203125	-0,015625
	-0,015625	0,203125	-0,000000
	-0,015625	0,203125	0,015625
	-0,031250	0,203125	0,093750
	-0,031250	0,140625	0,125000
	-0,031250	0,078125	0,125000
	-0,015625	0,046875	0,125000
	-0,000000	-0,000000	0,109375
	0,015625	-0,031250	0,062500
	0,046875	-0,015625	0,046875
	0,109375	-0,015625	-0,015625
	0,218750	-0,046875	-0,171875
	0,218750	-0,093750	-0,343750
	0,265625	-0,109375	-0,515625
	0,265625	-0,218750	-0,687500
	0,171875	-0,281250	-0,921875
	-0,031250	-0,468750	-1,796875
	-0,125000	-0,703125	-2,578125
	-0,312500	-1,906250	-2,343750
	-0,468750	-6,671875	1,625000
	0,203125	-7,921875	-1,140625
	0,562500	-6,015625	-3,250000
	0,437500	-3,984375	-3,328125
	0,312500	-3,281250	-2,046875
	0,171875	-2,703125	-0,765625
	0,890625	-1,921875	-1,343750
	2,593750	1,312500	-2,593750
	-0,375000	-1,812500	0,515625
	-1,343750	-3,250000	0,109375
	-0,937500	-2,390625	-0,218750
	-0,375000	-1,765625	-0,984375
	-0,046875	-1,390625	-0,843750
	0,093750	-1,265625	-0,625000
	0,453125	-0,484375	0,281250
	0,343750	-0,062500	0,296875
	0,265625	0,312500	0,093750
	0,234375	0,781250	-0,046875
	0,312500	1,296875	-0,109375
	0,140625	1,250000	-0,203125
	-0,000000	0,968750	-0,203125
	-0,062500	0,750000	-0,281250
	-0,078125	0,421875	-0,156250
	-0,015625	0,234375	-0,078125
	0,046875	0,140625	-0,000000
	0,078125	0,015625	0,015625
	0,046875	-0,171875	-0,046875
	0,031250	-0,234375	-0,078125
	0,015625	-0,296875	-0,093750
	-0,015625	-0,359375	-0,093750
	-0,015625	-0,375000	-0,109375
	-0,000000	-0,296875	-0,000000
	-0,015625	-0,281250	0,062500
	-0,031250	-0,281250	0,062500
	-0,000000	-0,218750	0,062500
	-0,000000	-0,171875	0,093750
	0,015625	-0,140625	0,109375
	-0,046875	-0,140625	0,125000
	-0,015625	-0,156250	0,109375
	0,015625	-0,296875	0,109375
	0,046875	-0,343750	0,078125
	0,046875	-0,437500	0,078125
	0,031250	-0,515625	0,031250
	0,015625	-0,781250	-0,125000
	0,093750	-0,921875	-0,109375
	0,031250	-1,109375	-0,234375
	-0,015625	-1,328125	-0,687500
	0,078125	-1,656250	-1,359375
	-0,015625	-3,140625	-0,734375
	-0,390625	-4,718750	-0,203125
	-0,296875	-5,078125	0,078125
	-0,187500	-5,281250	-0,140625
	-0,171875	-4,921875	-0,890625
	-0,265625	-4,515625	-0,875000
	-0,296875	-4,000000	-0,703125
	-0,328125	-3,578125	-0,593750
	-0,312500	-2,781250	-0,562500
	-0,281250	-2,312500	-0,562500
	-0,203125	-1,859375	-0,515625
	-0,062500	-1,453125	-0,437500
	0,031250	-0,890625	-0,187500
	0,062500	-0,609375	-0,078125
	0,109375	-0,343750	-0,031250
	0,109375	-0,078125	-0,062500
	0,109375	0,187500	-0,015625
	0,140625	0,562500	0,015625
	0,078125	0,718750	-0,062500
	0,078125	0,812500	-0,140625
	0,062500	0,843750	-0,218750
	0,078125	0,750000	-0,296875
	0,093750	0,656250	-0,265625
	0,093750	0,500000	-0,187500
	0,093750	0,359375	-0,156250
	0,015625	-0,000000	-0,109375
	0,031250	-0,093750	-0,093750
	-0,000000	-0,234375	-0,109375
	0,015625	-0,312500	-0,078125
	-0,000000	-0,406250	-0,078125
	0,015625	-0,437500	-0,062500
	0,015625	-0,453125	-0,046875
	0,015625	-0,406250	-0,031250
	-0,000000	-0,406250	-0,015625
	0,031250	-0,218750	0,031250
	0,015625	-0,156250	0,062500
	0,031250	-0,078125	0,078125
	0,078125	-0,015625	0,125000
	0,062500	-0,031250	0,078125
	0,046875	-0,031250	0,078125
	0,031250	-0,109375	0,031250
	0,046875	-0,156250	0,062500
	0,015625	-0,343750	-0,000000
	0,031250	-0,453125	-0,000000
	0,093750	-0,578125	-0,000000
	0,109375	-0,703125	0,046875
	0,125000	-1,046875	0,046875
	0,125000	-1,390625	-0,296875
	0,125000	-1,781250	-0,953125
	0,046875	-2,265625	-1,078125
	-0,031250	-3,015625	-0,234375
	-0,437500	-4,968750	0,296875
	-0,265625	-5,375000	0,593750
	-0,343750	-5,578125	0,062500
	-0,281250	-5,250000	-0,406250
	-0,328125	-4,250000	-0,250000
	-0,312500	-3,750000	-0,250000
	-0,375000	-3,312500	-0,250000
	-0,343750	-2,859375	-0,234375
	-0,218750	-1,921875	-0,265625
	-0,187500	-1,437500	-0,296875
	-0,187500	-1,062500	-0,265625
	-0,125000	-0,703125	-0,281250
	-0,031250	-0,218750	-0,031250
	0,031250	-0,031250	0,078125
	0,093750	0,203125	0,093750
	0,093750	0,359375	0,078125
	0,156250	0,515625	0,078125
	0,062500	0,671875	-0,125000
	0,062500	0,703125	-0,125000
	0,078125	0,687500	-0,156250
	0,093750	0,562500	-0,156250
	0,078125	0,296875	-0,078125
	0,046875	0,125000	-0,015625
	0,031250	-0,046875	-0,000000
	0,031250	-0,187500	-0,015625
	0,046875	-0,296875	0,015625
	0,015625	-0,406250	-0,015625
	0,015625	-0,468750	-0,046875
	-0,000000	-0,484375	-0,031250
	-0,031250	-0,437500	-0,015625
	-0,015625	-0,375000	-0,000000
	-0,031250	-0,312500	0,031250
	-0,031250	-0,234375	0,015625
	-0,015625	-0,156250	0,031250
	0,031250	-0,031250	0,062500
	0,078125	0,031250	0,062500
	0,062500	0,062500	0,062500
	0,093750	0,062500	0,078125
	0,125000	0,109375	0,093750
	0,062500	0,046875	-0,015625
	0,062500	-0,031250	-0,109375
	0,031250	-0,093750	-0,140625
	-0,000000	-0,296875	-0,140625
	0,015625	-0,406250	-0,140625
	0,031250	-0,546875	-0,140625
	0,031250	-0,765625	-0,031250
	-0,062500	-1,390625	-0,031250
	-0,046875	-1,718750	-0,234375
	-0,031250	-2,187500	-0,578125
	-0,046875	-2,843750	-0,250000
	-0,843750	-5,109375	0,390625
	-0,343750	-5,343750	0,734375
	-0,312500	-5,484375	0,343750
	-0,437500	-5,156250	-0,234375
	-0,515625	-4,640625	-0,234375
	-0,453125	-3,937500	0,203125
	-0,437500	-3,609375	0,156250
	-0,390625	-3,140625	0,078125
	-0,359375	-2,656250	-0,000000
	-0,218750	-1,734375	-0,046875
	-0,125000	-1,359375	-0,046875
	-0,093750	-1,046875	-0,000000
	-0,031250	-0,765625	0,062500
	0,046875	-0,265625	-0,000000
	0,078125	0,015625	-0,046875
	0,140625	0,250000	-0,062500
	0,125000	0,421875	-0,109375
	0,156250	0,625000	-0,171875
	0,140625	0,625000	-0,187500
	0,125000	0,578125	-0,265625
	0,093750	0,546875	-0,312500
	0,109375	0,484375	-0,312500
	0,046875	0,234375	-0,203125
	0,062500	0,078125	-0,125000
	0,031250	-0,046875	-0,109375
	0,015625	-0,140625	-0,109375
	-0,015625	-0,281250	-0,093750
	-0,015625	-0,328125	-0,109375
	-0,046875	-0,328125	-0,125000
	-0,000000	-0,343750	-0,109375
	0,015625	-0,312500	-0,093750
	0,031250	-0,281250	-0,046875
	0,046875	-0,265625	0,015625
	0,031250	-0,203125	0,046875
	-0,000000	-0,093750	0,125000
	0,046875	-0,015625	0,187500
	-0,031250	-0,000000	0,156250
	-0,015625	-0,000000	0,171875
	-0,031250	-0,031250	0,171875
	0,015625	-0,093750	0,156250
	0,031250	-0,187500	0,125000
	0,031250	-0,250000	0,109375
	0,062500	-0,328125	0,046875
	0,046875	-0,546875	-0,093750
	0,015625	-0,687500	-0,093750
	0,015625	-0,812500	-0,078125
	0,046875	-1,000000	0,031250
	0,109375	-1,984375	-0,578125
	0,109375	-2,546875	-0,906250
	0,062500	-3,281250	-0,484375
	-0,328125	-4,312500	0,062500
	-0,218750	-5,312500	0,875000
	-0,484375	-5,656250	0,546875
	-0,531250	-5,421875	-0,000000
	-0,484375	-4,859375	-0,062500
	-0,453125	-4,343750	-0,000000
	-0,375000	-3,281250	-0,109375
	-0,281250	-2,750000	-0,156250
	-0,203125	-2,265625	-0,203125
	-0,062500	-1,765625	-0,250000
	0,015625	-0,921875	-0,281250
	0,046875	-0,500000	-0,171875
	0,046875	-0,312500	-0,031250
	0,046875	-0,140625	0,015625
	0,062500	0,171875	-0,078125
	0,109375	0,375000	-0,015625
	0,062500	0,515625	-0,109375
	0,046875	0,578125	-0,156250
	0,093750	0,640625	-0,265625
	0,156250	0,609375	-0,281250
	0,125000	0,562500	-0,250000
	0,093750	0,406250	-0,234375
	0,015625	0,234375	-0,218750
	-0,015625	-0,140625	-0,140625
	-0,046875	-0,281250	-0,156250
	-0,031250	-0,359375	-0,093750
	-0,000000	-0,390625	-0,046875
	-0,046875	-0,421875	-0,000000
	-0,046875	-0,406250	0,046875
	-0,031250	-0,375000	0,062500
	-0,046875	-0,328125	-0,000000
	-0,031250	-0,203125	0,015625
	-0,000000	-0,171875	0,015625
	-0,031250	-0,125000	0,046875
	-0,015625	-0,078125	0,093750
	0,046875	0,031250	0,109375
	0,015625	-0,000000	0,078125
	0,093750	0,031250	0,031250
	0,093750	0,046875	0,015625
	0,078125	0,078125	-0,031250
	0,031250	0,015625	-0,062500
	0,015625	-0,031250	-0,046875
	0,031250	-0,125000	-0,062500
	-0,000000	-0,203125	-0,000000
	-0,031250	-0,500000	-0,000000
	-0,031250	-0,703125	0,078125
	-0,015625	-1,000000	0,203125
	-0,000000	-1,359375	0,296875
	-0,125000	-2,171875	-0,718750
	-0,093750	-2,515625	-0,968750
	-0,140625	-3,125000	-0,156250
	-0,796875	-4,281250	0,218750
	-0,406250	-5,281250	0,765625
	-0,609375	-5,500000	0,296875
	-0,687500	-5,312500	0,093750
	-0,671875	-4,843750	0,234375
	-0,625000	-4,250000	0,359375
	-0,500000	-3,312500	0,140625
	-0,406250	-2,921875	0,078125
	-0,250000	-2,531250	0,062500
	-0,203125	-2,078125	0,093750
	-0,078125	-1,359375	0,015625
	-0,046875	-1,062500	-0,015625
	0,031250	-0,812500	0,031250
	0,062500	-0,593750	-0,078125
	0,156250	-0,156250	-0,109375
	0,046875	0,062500	-0,125000
	-0,171875	0,484375	-0,234375
	-0,187500	0,734375	-0,187500
	-0,109375	0,859375	-0,312500
	-0,046875	0,812500	-0,328125
	0,046875	0,796875	-0,234375
	0,093750	0,656250	-0,187500
	0,125000	0,421875	-0,171875
	0,171875	-0,046875	-0,093750
	0,140625	-0,171875	-0,078125
	0,062500	-0,343750	-0,156250
	0,171875	-0,359375	-0,031250
	0,125000	-0,437500	-0,000000
	-0,000000	-0,484375	-0,062500
	0,015625	-0,453125	-0,125000
	0,015625	-0,390625	-0,093750
	-0,000000	-0,312500	0,031250
	-0,031250	-0,203125	0,078125
	-0,000000	-0,140625	0,109375
	-0,000000	-0,125000	0,140625
	0,015625	-0,062500	0,140625
	-0,015625	-0,078125	0,093750
	-0,046875	-0,031250	0,078125
	-0,015625	-0,031250	0,062500
	-0,000000	-0,031250	0,078125
	0,046875	-0,078125	0,062500
	0,078125	-0,156250	0,015625
	0,062500	-0,203125	-0,000000
	0,093750	-0,281250	-0,031250
	0,109375	-0,484375	-0,000000
	-0,015625	-0,656250	0,031250
	-0,015625	-0,875000	0,125000
	-0,062500	-1,109375	0,265625
	-0,125000	-1,750000	-0,000000
	-0,125000	-2,359375	-0,578125
	-0,062500	-3,000000	-0,359375
	-0,234375	-3,953125	0,390625
	-0,156250	-5,359375	0,906250
	-0,203125	-5,640625	0,687500
	-0,187500	-5,421875	0,328125
	-0,125000	-4,937500	0,281250
	-0,078125	-4,375000	0,375000
	-0,078125	-3,421875	0,312500
	-0,062500	-2,859375	0,203125
	-0,062500	-2,375000	0,140625
	-0,093750	-1,921875	0,109375
	-0,000000	-1,187500	0,031250
	-0,015625	-0,828125	0,078125
	0,015625	-0,484375	0,062500
	0,031250	-0,187500	0,093750
	0,140625	0,328125	0,015625
	0,171875	0,531250	-0,031250
	0,140625	0,625000	-0,171875
	0,093750	0,703125	-0,218750
	-0,078125	0,593750	-0,296875
	-0,046875	0,593750	-0,312500
	-0,078125	0,593750	-0,296875
	-0,093750	0,562500	-0,218750
	-0,046875	0,343750	-0,156250
	-0,125000	-0,109375	-0,171875
	-0,062500	-0,265625	-0,187500
	-0,015625	-0,343750	-0,187500
	0,140625	-0,453125	-0,218750
	0,156250	-0,562500	-0,062500
	0,187500	-0,500000	-0,062500
	0,234375	-0,484375	-0,093750
	0,187500	-0,375000	-0,062500
	0,125000	-0,328125	0,031250
	0,093750	-0,250000	0,046875
	0,062500	-0,187500	0,062500
	0,031250	-0,093750	0,062500
	0,109375	-0,078125	-0,109375
	-0,046875	0,156250	0,250000
	-0,031250	0,140625	0,015625
	0,015625	0,125000	0,062500
	-0,000000	0,109375	0,031250
	-0,031250	0,031250	0,031250
	-0,046875	-0,093750	-0,000000
	-0,046875	-0,234375	-0,031250
	-0,031250	-0,406250	-0,015625
	-0,046875	-0,765625	-0,046875
	-0,000000	-0,984375	0,078125
	0,140625	-1,234375	0,203125
	0,296875	-1,562500	0,218750
	0,484375	-2,312500	-0,562500
	0,265625	-2,796875	-0,312500
	0,046875	-3,781250	0,218750
	-0,203125	-4,500000	0,578125
	-0,046875	-5,562500	0,656250
	-0,093750	-5,343750	0,328125
	-0,218750	-4,843750	0,359375
	-0,203125	-4,421875	0,468750
	-0,218750	-3,953125	0,437500
	-0,171875	-3,062500	0,203125
	-0,156250	-2,640625	0,078125
	-0,125000	-2,187500	-0,000000
	-0,093750	-1,781250	-0,093750
	-0,046875	-1,140625	-0,078125
	-0,000000	-0,875000	-0,046875
	-0,000000	-0,546875	-0,046875
	0,046875	-0,250000	-0,046875
	0,078125	0,265625	-0,171875
	0,093750	0,437500	-0,156250
	0,078125	0,531250	-0,171875
	0,078125	0,546875	-0,140625
	0,093750	0,500000	-0,187500
	0,078125	0,468750	-0,203125
	0,046875	0,359375	-0,218750
	0,031250	0,234375	-0,203125
	0,015625	0,046875	-0,187500
	-0,000000	-0,171875	-0,062500
	0,031250	-0,234375	-0,062500
	0,062500	-0,250000	-0,062500
	0,046875	-0,250000	-0,093750
	0,062500	-0,234375	-0,078125
	0,062500	-0,265625	-0,078125
	0,031250	-0,234375	-0,031250
	0,062500	-0,203125	-0,015625
	-0,031250	-0,093750	-0,000000
	-0,015625	-0,015625	0,031250
	-0,031250	-0,015625	0,062500
	-0,046875	-0,000000	0,062500
	-0,015625	0,015625	0,093750
	0,015625	0,046875	0,093750
	0,046875	0,093750	0,093750
	0,078125	0,046875	0,093750
	0,078125	0,062500	0,046875
	0,109375	-0,062500	0,046875
	0,093750	-0,156250	0,062500
	0,062500	-0,250000	0,062500
	0,093750	-0,328125	0,125000
	0,109375	-0,625000	0,265625
	0,109375	-0,859375	0,281250
	0,109375	-1,046875	0,328125
	0,171875	-1,328125	0,234375
	0,234375	-2,375000	-0,687500
	0,015625	-3,000000	-0,218750
	-0,265625	-4,421875	0,421875
	-0,437500	-5,609375	0,546875
	-0,406250	-5,718750	0,484375
	-0,375000	-5,421875	0,093750
	-0,453125	-4,921875	0,343750
	-0,437500	-4,453125	0,437500
	-0,250000	-3,468750	0,234375
	-0,171875	-2,906250	0,171875
	-0,125000	-2,343750	0,078125
	-0,062500	-1,796875	-0,015625
	0,015625	-1,328125	-0,062500
	0,046875	-0,578125	-0,109375
	0,078125	-0,234375	0,031250
	0,062500	-0,078125	0,015625
	0,078125	0,187500	0,031250
	0,109375	0,609375	-0,000000
	0,109375	0,640625	-0,031250
	0,078125	0,593750	-0,093750
	0,093750	0,609375	-0,156250
	0,093750	0,500000	-0,281250
	0,093750	0,390625	-0,265625
	0,109375	0,265625	-0,250000
	0,078125	0,156250	-0,203125
	0,015625	-0,140625	-0,125000
	0,015625	-0,218750	-0,109375
	-0,000000	-0,359375	-0,093750
	-0,000000	-0,390625	-0,046875
	0,015625	-0,375000	-0,125000
	0,046875	-0,421875	-0,031250
	0,031250	-0,375000	-0,015625
	0,031250	-0,375000	0,015625
	0,062500	-0,343750	0,046875
	0,078125	-0,109375	0,109375
	0,046875	-0,031250	0,078125
	0,031250	-0,031250	0,046875
	-0,000000	0,031250	0,031250
	0,093750	0,109375	-0,000000
	0,015625	-0,000000	-0,062500
	0,015625	-0,031250	-0,046875
	0,015625	-0,046875	-0,078125
	0,015625	-0,062500	-0,078125
	-0,000000	-0,156250	-0,046875
	0,015625	-0,234375	-0,000000
	0,015625	-0,375000	0,140625
	-0,000000	-0,578125	0,234375
	0,078125	-1,125000	0,515625
	0,078125	-1,437500	0,609375
	0,218750	-1,906250	0,281250
	0,296875	-2,453125	-0,312500
	0,093750	-3,953125	0,343750
	-0,312500	-4,843750	0,375000
	-0,359375	-5,281250	0,906250
	-0,562500	-5,656250	0,546875
	-0,531250	-5,031250	0,375000
	-0,406250	-4,500000	0,500000
	-0,328125	-4,000000	0,484375
	-0,171875	-3,500000	0,343750
	-0,046875	-2,546875	0,140625
	-0,000000	-2,078125	0,093750
	-0,000000	-1,640625	0,046875
	-0,000000	-1,281250	0,046875
	-0,000000	-0,890625	0,046875
	0,015625	-0,125000	-0,062500
	0,046875	0,250000	-0,093750
	0,046875	0,578125	-0,062500
	0,093750	0,781250	-0,140625
	0,140625	0,750000	-0,156250
	0,125000	0,750000	-0,171875
	0,109375	0,671875	-0,171875
	0,125000	0,562500	-0,218750
	0,109375	0,218750	-0,250000
	0,078125	0,031250	-0,171875
	0,062500	-0,125000	-0,093750
	0,062500	-0,281250	-0,062500
	-0,031250	-0,500000	-0,031250
	-0,015625	-0,484375	-0,015625
	-0,062500	-0,468750	-0,015625
	-0,062500	-0,437500	-0,046875
	-0,093750	-0,359375	-0,031250
	-0,078125	-0,171875	-0,000000
	-0,078125	-0,125000	0,031250
	-0,015625	-0,093750	0,031250
	-0,015625	-0,078125	0,046875
	0,015625	-0,000000	0,046875
	0,062500	0,046875	0,031250
	0,031250	0,078125	0,015625
	0,031250	0,062500	0,015625
	0,046875	0,078125	-0,031250
	0,046875	0,062500	-0,015625
	0,031250	0,015625	-0,031250
	0,031250	-0,000000	-0,031250
	-0,000000	-0,109375	-0,093750
	0,046875	-0,140625	-0,046875
	-0,000000	-0,250000	-0,062500
	0,031250	-0,343750	-0,062500
	0,078125	-0,531250	-0,000000
	0,156250	-1,171875	0,390625
	0,218750	-1,609375	0,671875
	0,296875	-2,125000	0,406250
	0,296875	-2,906250	-0,390625
	0,109375	-4,828125	0,390625
	-0,140625	-5,375000	0,671875
	-0,156250	-5,390625	0,937500
	-0,406250	-5,421875	0,546875
	-0,593750	-4,843750	0,546875
	-0,500000	-4,421875	0,609375
	-0,437500	-3,921875	0,468750
	-0,281250	-3,453125	0,343750
	-0,046875	-2,546875	0,156250
	0,015625	-2,062500	-0,000000
	0,062500	-1,671875	-0,109375
	0,140625	-1,265625	-0,156250
	0,203125	-0,859375	-0,171875
	0,218750	-0,187500	-0,140625
	0,187500	0,171875	-0,125000
	0,218750	0,500000	-0,109375
	0,218750	0,750000	-0,062500
	0,140625	0,687500	-0,046875
	0,109375	0,687500	-0,062500
	0,109375	0,656250	-0,156250
	0,093750	0,562500	-0,250000
	0,140625	0,281250	-0,234375
	0,125000	0,187500	-0,156250
	0,109375	-0,031250	-0,109375
	0,046875	-0,218750	-0,062500
	-0,015625	-0,468750	-0,062500
	-0,015625	-0,515625	-0,031250
	-0,000000	-0,531250	-0,015625
	-0,015625	-0,546875	-0,000000
	-0,031250	-0,515625	0,015625
	-0,078125	-0,359375	-0,000000
	-0,046875	-0,312500	0,031250
	-0,062500	-0,187500	0,031250
	-0,015625	-0,093750	0,062500
	-0,031250	-0,015625	0,109375
	0,015625	0,093750	0,203125
	-0,000000	0,109375	0,125000
	-0,000000	0,125000	0,156250
	0,031250	0,156250	0,125000
	0,062500	0,156250	0,062500
	0,031250	0,125000	0,062500
	0,062500	0,109375	0,046875
	0,046875	0,015625	0,031250
	0,031250	-0,140625	-0,015625
	0,031250	-0,234375	-0,046875
	0,031250	-0,406250	-0,031250
	0,062500	-0,625000	-0,031250
	0,062500	-1,187500	0,203125
	0,078125	-1,468750	0,453125
	0,203125	-1,812500	0,312500
	0,281250	-2,421875	-0,515625
	0,078125	-4,921875	0,187500
	-0,046875	-6,265625	0,390625
	-0,000000	-5,921875	0,796875
	-0,218750	-5,656250	0,593750
	-0,218750	-4,953125	0,265625
	-0,156250	-4,343750	0,375000
	-0,140625	-3,765625	0,296875
	-0,062500	-3,296875	0,250000
	-0,000000	-2,359375	0,109375
	0,078125	-1,906250	0,062500
	0,125000	-1,453125	-0,000000
	0,125000	-0,968750	-0,015625
	0,171875	-0,625000	0,062500
	0,093750	0,109375	0,203125
	0,109375	0,437500	0,187500
	0,093750	0,687500	0,093750
	0,046875	0,828125	-0,046875
	0,031250	0,765625	-0,265625
	0,046875	0,734375	-0,375000
	0,046875	0,687500	-0,421875
	0,031250	0,593750	-0,390625
	0,046875	0,328125	-0,203125
	-0,015625	0,078125	-0,125000
	-0,000000	-0,156250	-0,093750
	0,046875	-0,328125	-0,078125
	0,015625	-0,468750	-0,078125
	-0,000000	-0,515625	-0,046875
	-0,015625	-0,515625	-0,031250
	-0,015625	-0,453125	-0,015625
	-0,000000	-0,437500	0,015625
	0,031250	-0,328125	0,093750
	0,109375	-0,234375	0,140625
	0,062500	-0,203125	0,171875
	0,031250	-0,125000	0,171875
	0,046875	0,046875	0,140625
	0,031250	0,078125	0,109375
	0,015625	0,109375	0,093750
	0,046875	0,093750	0,046875
	0,062500	0,125000	-0,015625
	0,046875	0,062500	-0,062500
	0,078125	0,046875	-0,109375
	0,062500	0,031250	-0,078125
	0,015625	-0,046875	-0,109375
	0,031250	-0,187500	-0,109375
	0,046875	-0,343750	-0,093750
	0,015625	-0,562500	-0,031250
	0,031250	-0,828125	0,093750
	0,015625	-1,406250	0,453125
	0,125000	-1,765625	0,218750
	0,281250	-2,312500	-0,687500
	0,281250	-3,015625	-0,812500
	-0,015625	-6,015625	0,546875
	0,062500	-6,250000	0,734375
	-0,140625	-6,093750	0,593750
	-0,234375	-5,750000	0,078125
	-0,265625	-4,781250	0,546875
	-0,140625	-4,328125	0,359375
	-0,046875	-3,750000	0,187500
	-0,062500	-3,109375	0,109375
	-0,078125	-2,046875	-0,000000
	-0,062500	-1,625000	-0,046875
	-0,031250	-1,218750	-0,015625
	-0,000000	-0,859375	-0,078125
	-0,046875	-0,437500	-0,125000
	-0,000000	0,250000	-0,171875
	0,031250	0,562500	-0,125000
	0,093750	0,796875	-0,140625
	0,171875	0,875000	-0,140625
	0,156250	0,781250	-0,265625
	0,156250	0,734375	-0,250000
	0,109375	0,671875	-0,281250
	0,125000	0,484375	-0,281250
	0,093750	0,171875	-0,218750
	0,046875	-0,031250	-0,156250
	0,015625	-0,234375	-0,109375
	0,015625	-0,343750	-0,078125
	-0,015625	-0,421875	-0,078125
	-0,000000	-0,437500	-0,046875
	-0,031250	-0,453125	-0,078125
	0,015625	-0,421875	-0,078125
	-0,000000	-0,375000	-0,078125
	0,078125	-0,234375	0,046875
	0,046875	-0,218750	0,046875
	0,015625	-0,156250	0,078125
	0,015625	-0,125000	0,093750
	-0,015625	-0,062500	0,187500
	-0,015625	-0,000000	0,203125
	-0,000000	-0,015625	0,250000
	-0,000000	0,031250	0,187500
	0,015625	0,093750	0,078125
	0,062500	0,125000	0,015625
	0,078125	0,140625	-0,000000
	0,093750	0,078125	-0,015625
	0,109375	-0,015625	-0,078125
	0,125000	-0,078125	-0,062500
	0,140625	-0,140625	-0,046875
	0,140625	-0,250000	-0,015625
	0,125000	-0,343750	-0,078125
	0,015625	-0,718750	-0,140625
	0,062500	-0,968750	-0,062500
	0,078125	-1,265625	0,078125
	0,296875	-1,718750	-0,078125
	0,375000	-3,375000	-0,671875
	0,031250	-4,421875	-0,093750
	-0,015625	-5,609375	0,281250
	0,187500	-5,968750	0,734375
	0,250000	-5,578125	-0,296875
	0,281250	-5,125000	-0,125000
	0,250000	-4,703125	0,046875
	0,093750	-4,218750	0,031250
	-0,156250	-3,031250	-0,156250
	-0,140625	-2,484375	-0,234375
	-0,171875	-2,093750	-0,296875
	-0,078125	-1,765625	-0,359375
	-0,078125	-1,437500	-0,343750
	-0,046875	-0,843750	-0,078125
	-0,031250	-0,546875	-0,062500
	-0,000000	-0,218750	-0,062500
	0,015625	0,109375	-0,078125
	0,062500	0,593750	-0,093750
	0,109375	0,671875	-0,109375
	0,187500	0,703125	-0,125000
	0,187500	0,687500	-0,171875
	0,218750	0,531250	-0,234375
	0,218750	0,343750	-0,218750
	0,218750	0,109375	-0,156250
	0,156250	-0,078125	-0,125000
	0,093750	-0,328125	-0,031250
	-0,062500	-0,390625	-0,000000
	-0,078125	-0,390625	-0,046875
	-0,078125	-0,343750	-0,062500
	-0,062500	-0,250000	-0,078125
	-0,031250	-0,093750	-0,093750
	-0,078125	-0,015625	-0,078125
	-0,015625	-0,062500	-0,078125
	-0,031250	-0,031250	-0,062500
	-0,046875	-0,000000	0,015625
	-0,015625	0,015625	0,046875
	-0,015625	0,015625	0,078125
	-0,000000	0,078125	0,109375
	0,062500	0,109375	0,078125
	0,093750	0,125000	0,093750
	0,109375	0,093750	0,109375
	0,125000	0,046875	0,078125
	0,171875	-0,062500	-0,015625
	0,171875	-0,109375	-0,015625
	0,156250	-0,140625	-0,000000
	0,125000	-0,250000	0,031250
	0,140625	-0,359375	0,046875
	0,140625	-0,718750	-0,031250
	0,140625	-0,937500	-0,046875
	0,171875	-1,218750	-0,031250
	0,203125	-1,656250	0,046875
	0,203125	-2,593750	-1,312500
	0,109375	-3,171875	-1,296875
	-0,171875	-3,875000	-0,390625
	-0,406250	-5,250000	0,265625
	-0,031250	-6,109375	0,156250
	-0,093750	-5,906250	-0,343750
	-0,015625	-5,328125	-0,093750
	0,078125	-4,812500	0,156250
	0,078125	-3,531250	-0,015625
	-0,140625	-2,859375	-0,078125
	-0,171875	-2,343750	-0,156250
	-0,109375	-1,890625	-0,156250
	-0,078125	-1,546875	-0,203125
	-0,109375	-0,718750	-0,187500
	-0,062500	-0,265625	-0,171875
	-0,062500	0,171875	-0,156250
	-0,015625	0,500000	-0,109375
	0,093750	0,890625	-0,140625
	0,203125	0,875000	-0,171875
	0,250000	0,812500	-0,250000
	0,234375	0,781250	-0,296875
	0,203125	0,578125	-0,296875
	0,203125	0,437500	-0,250000
	0,171875	0,234375	-0,234375
	0,109375	0,046875	-0,218750
	-0,000000	-0,312500	-0,234375
	-0,046875	-0,437500	-0,187500
	-0,078125	-0,484375	-0,140625
	-0,156250	-0,531250	-0,140625
	-0,125000	-0,453125	-0,062500
	-0,109375	-0,390625	-0,031250
	-0,031250	-0,312500	0,078125
	-0,000000	-0,296875	0,093750
	0,015625	-0,296875	0,156250
	0,062500	-0,203125	0,281250
	0,093750	-0,156250	0,250000
	0,125000	-0,125000	0,203125
	0,093750	-0,062500	0,140625
	0,109375	0,125000	0,109375
	0,015625	0,140625	0,015625
	-0,015625	0,156250	-0,031250
	-0,000000	0,156250	-0,046875
	0,015625	0,109375	-0,062500
	0,015625	0,062500	-0,046875
	0,015625	-0,046875	-0,062500
	0,046875	-0,171875	-0,093750
	0,062500	-0,312500	-0,078125
	0,046875	-0,781250	0,125000
	0,125000	-1,062500	0,156250
	0,093750	-1,328125	0,250000
	0,015625	-1,671875	0,500000
	-0,031250	-2,718750	-0,531250
	-0,000000	-3,109375	-0,406250
	-0,140625	-4,078125	-0,203125
	-0,234375	-4,781250	-0,015625
	-0,171875	-5,390625	-0,203125
	-0,328125	-5,437500	-0,078125
	-0,234375	-5,328125	0,187500
	-0,015625	-4,859375	0,156250
	0,015625	-3,562500	0,218750
	0,078125	-3,093750	0,203125
	0,156250	-2,562500	0,156250
	0,218750	-2,062500	0,171875
	0,265625	-1,609375	0,171875
	0,250000	-0,921875	0,156250
	0,171875	-0,546875	0,093750
	0,046875	-0,250000	0,062500
	-0,000000	0,093750	-0,000000
	0,093750	0,734375	-0,015625
	0,015625	0,781250	-0,093750
	0,015625	0,703125	-0,234375
	0,015625	0,750000	-0,390625
	0,062500	0,671875	-0,593750
	0,078125	0,609375	-0,531250
	0,062500	0,328125	-0,421875
	0,031250	0,031250	-0,296875
	-0,000000	-0,406250	-0,078125
	-0,000000	-0,453125	0,031250
	-0,046875	-0,500000	0,109375
	-0,078125	-0,546875	0,062500
	-0,093750	-0,515625	0,078125
	-0,078125	-0,375000	0,078125
	-0,031250	-0,312500	0,140625
	-0,031250	-0,250000	0,093750
	0,046875	-0,218750	0,109375
	0,046875	-0,187500	0,109375
	0,078125	-0,125000	0,125000
	0,015625	-0,046875	0,109375
	-0,000000	-0,000000	0,093750
	-0,000000	0,031250	0,062500
	-0,000000	0,046875	0,062500
	0,031250	0,062500	0,031250
	0,031250	0,062500	-0,000000
	0,046875	0,046875	-0,062500
	0,062500	-0,000000	-0,046875
	0,062500	-0,015625	-0,078125
	0,078125	-0,031250	-0,062500
	0,078125	-0,062500	-0,062500
	0,125000	-0,187500	0,031250
	0,109375	-0,375000	-0,015625
	0,078125	-0,484375	-0,156250
	0,078125	-0,656250	-0,250000
	0,140625	-1,359375	-0,296875
	0,296875	-1,859375	-0,500000
	0,531250	-2,406250	-0,984375
	0,484375	-3,093750	-0,921875
	0,031250	-5,390625	0,765625
	0,125000	-6,484375	1,328125
	0,062500	-6,812500	0,718750
	0,031250	-6,562500	-0,000000
	-0,015625	-5,031250	0,078125
	-0,093750	-4,312500	0,015625
	-0,156250	-3,640625	-0,109375
	-0,187500	-3,000000	-0,281250
	-0,171875	-2,406250	-0,375000
	-0,000000	-1,593750	-0,531250
	0,078125	-1,250000	-0,500000
	0,125000	-0,859375	-0,421875
	0,187500	-0,515625	-0,343750
	0,187500	0,234375	-0,281250
	0,156250	0,562500	-0,281250
	0,109375	0,781250	-0,281250
	0,078125	0,765625	-0,234375
	0,062500	0,765625	-0,265625
	0,062500	0,734375	-0,203125
	0,062500	0,671875	-0,140625
	0,093750	0,546875	-0,093750
	0,156250	0,171875	0,015625
	0,234375	-0,000000	0,046875
	0,171875	-0,187500	0,078125
	0,140625	-0,343750	0,109375
	0,140625	-0,468750	0,046875
	0,015625	-0,515625	0,046875
	-0,015625	-0,468750	0,046875
	-0,062500	-0,406250	-0,015625
	-0,078125	-0,312500	-0,000000
	-0,046875	-0,218750	0,031250
	-0,078125	-0,140625	0,062500
	-0,046875	-0,125000	0,109375
	-0,000000	-0,093750	0,109375
	-0,046875	-0,062500	0,125000
	-0,062500	-0,031250	0,062500
	-0,031250	-0,015625	0,031250
	-0,015625	-0,000000	-0,031250
	0,046875	0,062500	-0,000000
	0,078125	0,062500	-0,015625
	0,093750	0,031250	-0,031250
	0,125000	0,031250	-0,062500
	0,171875	-0,000000	-0,046875
	0,140625	-0,062500	-0,093750
	0,156250	-0,187500	-0,093750
	0,093750	-0,343750	-0,109375
	0,109375	-0,531250	-0,046875
	0,093750	-0,984375	0,015625
	0,109375	-1,250000	0,156250
	0,281250	-1,609375	0,265625
	0,515625	-2,062500	0,078125
	-0,031250	-3,375000	-0,796875
	-0,546875	-4,406250	0,312500
	-0,625000	-5,531250	1,015625
	0,078125	-6,140625	0,609375
	-0,265625	-6,109375	-0,093750
	-0,125000	-5,531250	0,328125
	0,062500	-4,984375	0,343750
	-0,140625	-4,250000	0,156250
	-0,296875	-3,312500	-0,015625
	-0,359375	-1,906250	-0,171875
	-0,234375	-1,406250	-0,234375
	-0,062500	-0,906250	-0,296875
	0,046875	-0,468750	-0,234375
	0,171875	0,250000	-0,046875
	0,171875	0,625000	-0,000000
	0,140625	0,937500	0,031250
	0,125000	0,937500	-0,015625
	0,062500	0,828125	-0,312500
	0,062500	0,812500	-0,421875
	0,031250	0,718750	-0,421875
	0,078125	0,578125	-0,312500
	0,156250	0,156250	-0,093750
	0,171875	-0,078125	-0,078125
	0,171875	-0,312500	-0,062500
	0,234375	-0,484375	-0,015625
	0,171875	-0,625000	-0,015625
	0,046875	-0,625000	0,078125
	-0,000000	-0,593750	0,093750
	-0,078125	-0,515625	0,140625
	-0,062500	-0,421875	0,140625
	-0,046875	-0,265625	0,171875
	0,015625	-0,218750	0,250000
	-0,000000	-0,203125	0,265625
	0,015625	-0,218750	0,265625
	-0,015625	-0,140625	0,125000
	-0,000000	-0,093750	0,062500
	0,031250	-0,031250	-0,015625
	-0,000000	0,031250	-0,031250
	0,015625	0,140625	-0,046875
	0,046875	0,187500	-0,062500
	0,062500	0,203125	-0,093750
	0,062500	0,156250	-0,109375
	0,078125	0,171875	-0,093750
	0,031250	-0,000000	-0,140625
	-0,000000	-0,078125	-0,109375
	-0,000000	-0,187500	-0,093750
	0,031250	-0,343750	-0,015625
	0,125000	-0,546875	0,046875
	0,109375	-0,671875	0,031250
	0,218750	-1,031250	0,109375
	0,375000	-1,593750	-0,031250
	0,453125	-3,187500	-0,421875
	0,156250	-4,375000	-0,484375
	0,343750	-5,218750	0,140625
	-0,093750	-5,296875	0,734375
	-0,031250	-4,984375	-0,125000
	-0,078125	-5,156250	0,031250
	0,031250	-5,015625	0,328125
	0,062500	-4,593750	0,390625
	-0,000000	-4,171875	0,343750
	-0,000000	-3,359375	0,125000
	-0,031250	-2,812500	0,062500
	-0,078125	-2,328125	0,046875
	-0,125000	-1,843750	0,046875
	-0,156250	-1,031250	-0,015625
	-0,203125	-0,687500	-0,062500
	-0,140625	-0,375000	-0,140625
	-0,109375	-0,093750	-0,156250
	-0,031250	0,375000	-0,203125
	0,078125	0,531250	-0,250000
	0,125000	0,593750	-0,265625
	0,171875	0,609375	-0,296875
	0,171875	0,531250	-0,359375
	0,203125	0,484375	-0,281250
	0,218750	0,468750	-0,203125
	0,187500	0,343750	-0,140625
	0,140625	0,203125	-0,078125
	0,093750	-0,046875	-0,046875
	0,078125	-0,140625	-0,031250
	0,078125	-0,218750	0,031250
	0,078125	-0,312500	0,078125
	0,140625	-0,390625	0,046875
	0,093750	-0,468750	-0,000000
	0,125000	-0,421875	-0,015625
	0,078125	-0,437500	-0,031250
	0,078125	-0,218750	0,046875
	0,031250	-0,171875	0,062500
	-0,046875	-0,140625	0,093750
	-0,078125	-0,093750	0,109375
	-0,078125	-0,000000	0,140625
	-0,062500	0,062500	0,140625
	-0,015625	0,125000	0,171875
	0,015625	0,140625	0,109375
	0,031250	0,140625	0,078125
	0,109375	0,140625	-0,062500
	0,125000	0,109375	-0,109375
	0,140625	0,046875	-0,078125
	0,156250	-0,031250	-0,046875
	0,171875	-0,156250	-0,062500
	0,187500	-0,218750	-0,046875
	0,156250	-0,296875	-0,062500
	0,171875	-0,437500	-0,093750
	0,109375	-0,890625	-0,234375
	0,156250	-1,140625	-0,187500
	0,265625	-1,453125	-0,359375
	0,437500	-1,906250	-1,078125
	0,109375	-3,703125	-0,343750
	0,062500	-5,406250	0,765625
	-0,062500	-6,687500	1,359375
	0,140625	-6,781250	0,968750
	0,031250	-6,515625	0,062500
	0,062500	-4,953125	0,375000
	0,125000	-4,359375	0,281250
	0,140625	-3,843750	0,156250
	0,046875	-3,296875	0,109375
	-0,046875	-2,328125	-0,015625
	-0,046875	-1,921875	-0,140625
	-0,062500	-1,625000	-0,218750
	-0,031250	-1,296875	-0,125000
	-0,078125	-0,671875	-0,265625
	-0,062500	-0,312500	-0,453125
	-0,046875	0,125000	-0,484375
	-0,062500	0,453125	-0,406250
	0,015625	0,781250	-0,296875
	0,046875	0,796875	-0,296875
	0,046875	0,734375	-0,281250
	0,046875	0,703125	-0,328125
	0,078125	0,703125	-0,359375
	0,078125	0,484375	-0,218750
	0,093750	0,250000	-0,156250
	0,125000	0,046875	-0,062500
	0,125000	-0,234375	-0,000000
	0,125000	-0,531250	0,062500
	0,125000	-0,593750	0,062500
	0,140625	-0,578125	0,031250
	0,171875	-0,437500	-0,015625
	0,140625	-0,234375	-0,000000
	0,109375	-0,125000	-0,000000
	0,078125	-0,093750	-0,000000
	0,031250	-0,093750	-0,000000
	-0,046875	-0,078125	0,078125
	-0,046875	-0,031250	0,093750
	-0,078125	-0,031250	0,078125
	-0,093750	-0,062500	0,109375
	-0,062500	-0,031250	0,062500
	-0,031250	0,062500	-0,015625
	-0,031250	0,093750	-0,046875
	-0,000000	0,140625	-0,046875
	-0,015625	0,140625	-0,015625
	0,046875	0,062500	-0,015625
	0,078125	-0,000000	-0,031250
	0,078125	-0,062500	-0,015625
	0,140625	-0,156250	0,015625
	0,093750	-0,390625	-0,046875
	0,109375	-0,484375	-0,125000
	0,109375	-0,671875	-0,140625
	0,093750	-0,875000	-0,171875
	0,062500	-1,296875	-0,156250
	0,109375	-1,656250	-0,234375
	0,218750	-2,359375	-0,953125
	0,140625	-3,343750	-0,718750
	-0,000000	-4,953125	0,140625
	0,125000	-6,921875	1,093750
	0,125000	-6,531250	-0,062500
	0,031250	-5,703125	-0,515625
	-0,218750	-4,937500	-0,078125
	-0,078125	-4,109375	0,203125
	-0,062500	-3,593750	0,156250
	-0,062500	-3,046875	0,046875
	-0,000000	-2,562500	-0,093750
	0,046875	-1,703125	-0,140625
	0,031250	-1,218750	-0,015625
	-0,000000	-0,828125	-0,031250
	-0,062500	-0,359375	-0,078125
	-0,031250	0,578125	-0,046875
	-0,062500	0,796875	-0,000000
	0,015625	0,968750	-0,078125
	0,093750	0,984375	-0,125000
	0,078125	0,828125	-0,218750
	0,140625	0,843750	-0,375000
	0,203125	0,750000	-0,312500
	0,218750	0,562500	-0,234375
	0,203125	0,312500	-0,109375
	0,078125	-0,171875	-0,093750
	0,046875	-0,296875	-0,062500
	0,078125	-0,406250	-0,046875
	0,078125	-0,500000	-0,031250
	0,031250	-0,609375	-0,031250
	-0,000000	-0,640625	-0,031250
	-0,031250	-0,562500	-0,031250
	-0,062500	-0,468750	-0,046875
	0,015625	-0,218750	-0,000000
	0,031250	-0,203125	-0,062500
	0,062500	-0,218750	-0,062500
	0,046875	-0,187500	-0,031250
	0,062500	-0,093750	-0,000000
	0,062500	-0,000000	0,046875
	0,046875	0,046875	0,046875
	0,046875	0,109375	0,062500
	0,031250	0,125000	0,062500
	0,031250	0,156250	-0,015625
	0,062500	0,187500	-0,015625
	0,015625	0,156250	-0,093750
	-0,000000	0,109375	-0,125000
	0,015625	0,031250	-0,109375
	0,015625	-0,093750	-0,140625
	0,031250	-0,203125	-0,140625
	0,046875	-0,343750	-0,140625
	0,140625	-0,828125	-0,156250
	0,187500	-1,156250	-0,328125
	0,140625	-1,468750	-0,281250
	0,031250	-1,812500	-0,031250
	-0,000000	-2,062500	0,062500
	-0,109375	-3,015625	-0,687500
	-0,218750	-4,078125	-0,125000
	-0,375000	-5,031250	0,578125
	0,031250	-5,812500	0,734375
	-0,031250	-6,062500	0,093750
	-0,078125	-5,406250	0,468750
	-0,078125	-4,890625	0,562500
	-0,031250	-4,390625	0,484375
	0,046875	-3,203125	0,359375
	0,109375	-2,734375	0,187500
	0,109375	-2,265625	0,078125
	0,062500	-1,890625	-0,031250
	-0,062500	-1,062500	-0,171875
	-0,046875	-0,703125	-0,250000
	-0,125000	-0,328125	-0,375000
	-0,125000	0,015625	-0,359375
	-0,140625	0,296875	-0,328125
	-0,031250	0,703125	-0,359375
	-0,000000	0,750000	-0,437500
	0,015625	0,718750	-0,468750
	0,015625	0,718750	-0,531250
	0,015625	0,625000	-0,453125
	0,078125	0,484375	-0,312500
	0,062500	0,265625	-0,218750
	0,062500	-0,000000	-0,109375
	0,046875	-0,390625	0,046875
	0,046875	-0,484375	0,078125
	0,046875	-0,578125	0,109375
	0,031250	-0,593750	0,078125
	0,109375	-0,453125	-0,000000
	0,093750	-0,343750	-0,015625
	0,109375	-0,250000	-0,046875
	0,140625	-0,140625	-0,031250
	0,125000	-0,000000	-0,015625
	0,125000	0,062500	-0,000000
	0,093750	0,078125	0,062500
	0,031250	0,046875	0,078125
	0,015625	0,046875	0,093750
	0,015625	0,046875	0,156250
	-0,015625	0,062500	0,093750
	-0,031250	0,093750	0,093750
	-0,015625	0,062500	0,062500
	-0,062500	0,062500	-0,015625
	-0,062500	0,031250	-0,046875
	-0,062500	-0,000000	-0,000000
	-0,046875	-0,031250	0,031250
	0,031250	-0,125000	0,078125
	0,062500	-0,203125	0,078125
	0,093750	-0,218750	0,109375
	0,109375	-0,328125	0,062500
	0,093750	-0,437500	-0,046875
	0,109375	-0,796875	-0,171875
	0,109375	-1,109375	-0,296875
	0,078125	-1,390625	-0,265625
	0,078125	-1,656250	-0,390625
	0,078125	-2,781250	-1,375000
	0,125000	-3,468750	-0,515625
	0,031250	-5,062500	0,078125
	0,140625	-6,359375	0,718750
	0,031250	-6,843750	-0,343750
	0,046875	-6,359375	-0,031250
	0,046875	-5,546875	0,359375
	0,156250	-4,906250	0,343750
	0,046875	-3,578125	-0,062500
	-0,015625	-2,781250	-0,109375
	0,015625	-2,171875	-0,171875
	0,031250	-1,750000	-0,296875
	-0,015625	-1,312500	-0,406250
	-0,093750	-0,593750	-0,156250
	-0,125000	-0,265625	-0,218750
	-0,109375	0,109375	-0,250000
	-0,125000	0,468750	-0,250000
	0,062500	1,000000	-0,359375
	0,140625	1,000000	-0,390625
	0,109375	0,953125	-0,390625
	0,125000	0,921875	-0,437500
	0,171875	0,687500	-0,296875
	0,203125	0,500000	-0,218750
	0,296875	0,265625	-0,187500
	0,281250	-0,031250	-0,109375
	0,218750	-0,468750	-0,078125
	0,187500	-0,609375	-0,015625
	0,125000	-0,718750	-0,015625
	0,109375	-0,718750	0,015625
	0,078125	-0,593750	0,062500
	-0,031250	-0,328125	0,062500
	-0,062500	-0,187500	0,078125
	-0,078125	-0,187500	0,093750
	-0,078125	-0,171875	0,125000
	-0,078125	-0,171875	0,125000
	-0,046875	-0,156250	0,140625
	-0,046875	-0,140625	0,125000
	-0,031250	-0,109375	0,062500
	-0,031250	-0,000000	-0,000000
	-0,031250	0,078125	-0,015625
	-0,015625	0,109375	-0,031250
	-0,000000	0,140625	-0,015625
	0,015625	0,156250	-0,015625
	0,062500	0,125000	0,062500
	0,046875	0,093750	-0,000000
	0,046875	0,046875	0,015625
	0,078125	-0,000000	-0,031250
	0,062500	-0,078125	-0,109375
	0,078125	-0,140625	-0,125000
	0,046875	-0,281250	-0,187500
	0,078125	-0,390625	-0,203125
	0,171875	-0,640625	-0,265625
	0,203125	-0,781250	-0,390625
	0,187500	-1,078125	-0,421875
	0,203125	-1,484375	-0,437500
	0,078125	-3,218750	-0,609375
	0,156250	-4,750000	-0,296875
	0,140625	-6,312500	0,328125
	0,125000	-6,078125	0,593750
	0,156250	-5,781250	-0,187500
	0,031250	-5,375000	0,312500
	0,031250	-4,781250	0,515625
	-0,015625	-4,265625	0,546875
	0,125000	-3,468750	0,328125
	0,171875	-3,093750	0,187500
	0,218750	-2,625000	0,156250
	0,281250	-2,265625	0,125000
	0,234375	-1,859375	0,125000
	0,015625	-1,046875	-0,109375
	-0,015625	-0,656250	-0,296875
	-0,031250	-0,296875	-0,343750
	-0,031250	0,093750	-0,359375
	0,015625	0,828125	-0,218750
	0,078125	1,031250	-0,187500
	0,078125	1,109375	-0,265625
	-0,015625	1,078125	-0,437500
	-0,031250	1,015625	-0,531250
	0,015625	0,718750	-0,468750
	0,046875	0,515625	-0,453125
	0,078125	0,234375	-0,421875
	0,140625	-0,390625	-0,156250
	0,140625	-0,562500	-0,046875
	0,140625	-0,718750	0,015625
	0,140625	-0,750000	0,078125
	0,140625	-0,718750	0,093750
	0,015625	-0,609375	-0,000000
	-0,031250	-0,484375	0,031250
	-0,000000	-0,265625	0,062500
	-0,015625	-0,156250	0,031250
	0,046875	-0,062500	-0,000000
	0,046875	-0,031250	0,046875
	0,015625	0,015625	0,078125
	0,015625	0,046875	0,093750
	0,015625	0,046875	0,156250
	-0,000000	0,031250	0,125000
	-0,000000	0,046875	0,140625
	0,015625	0,046875	0,078125
	0,031250	0,078125	0,062500
	0,046875	0,078125	0,046875
	0,015625	0,093750	0,031250
	0,015625	0,078125	-0,015625
	0,015625	0,078125	-0,046875
	-0,000000	0,015625	-0,000000
	0,046875	0,031250	0,046875
	0,015625	-0,078125	0,125000
	0,078125	-0,187500	0,156250
	0,296875	-0,578125	0,062500
	0,281250	-0,843750	-0,171875
	0,296875	-1,031250	-0,406250
	0,234375	-1,250000	-0,640625
	0,046875	-1,781250	-1,609375
	0,015625	-2,531250	-1,718750
	-0,046875	-3,937500	-0,734375
	0,390625	-5,796875	0,218750
	0,515625	-7,406250	0,515625
	0,546875	-6,812500	-0,343750
	0,500000	-6,140625	-0,421875
	0,484375	-5,500000	-0,140625
	0,281250	-4,843750	-0,093750
	-0,015625	-3,515625	-0,359375
	-0,109375	-2,890625	-0,390625
	-0,093750	-2,390625	-0,390625
	-0,109375	-1,843750	-0,578125
	-0,171875	-0,796875	-0,562500
	-0,171875	-0,453125	-0,609375
	-0,062500	-0,125000	-0,625000
	-0,031250	0,218750	-0,562500
	0,109375	0,937500	-0,390625
	0,156250	1,031250	-0,296875
	0,140625	1,062500	-0,359375
	0,125000	1,078125	-0,484375
	0,125000	1,000000	-0,515625
	0,171875	0,796875	-0,359375
	0,250000	0,531250	-0,187500
	0,218750	0,187500	-0,093750
	0,187500	-0,078125	-0,031250
	0,140625	-0,453125	0,046875
	0,156250	-0,531250	0,046875
	0,093750	-0,609375	0,093750
	0,093750	-0,625000	0,140625
	0,031250	-0,500000	0,218750
	0,031250	-0,453125	0,234375
	0,031250	-0,406250	0,265625
	0,031250	-0,375000	0,281250
	-0,031250	-0,296875	0,296875
	-0,093750	-0,328125	0,296875
	-0,093750	-0,265625	0,265625
	-0,109375	-0,234375	0,250000
	-0,093750	-0,156250	0,109375
	-0,093750	-0,078125	0,078125
	-0,078125	0,015625	0,062500
	-0,046875	0,093750	0,046875
	-0,015625	0,140625	0,015625
	0,046875	0,187500	0,031250
	0,062500	0,109375	-0,015625
	0,062500	0,062500	-0,000000
	0,093750	0,031250	-0,046875
	0,093750	-0,078125	-0,109375
	0,093750	-0,062500	-0,140625
	0,046875	-0,031250	-0,156250
	0,015625	-0,000000	-0,156250
	-0,000000	-0,109375	-0,203125
	-0,015625	-0,171875	-0,265625
	0,078125	-0,250000	-0,359375
	0,093750	-0,359375	-0,406250
	0,140625	-1,031250	-0,593750
	0,265625	-1,703125	-0,765625
	0,375000	-2,812500	-0,921875
	0,593750	-4,812500	-0,468750
	0,625000	-7,328125	0,562500
	0,437500	-6,015625	-0,187500
	0,562500	-5,687500	-0,625000
	0,437500	-5,406250	-0,171875
	0,296875	-4,968750	0,203125
	-0,000000	-4,218750	0,234375
	0,046875	-3,843750	-0,031250
	0,171875	-3,437500	-0,078125
	0,171875	-3,125000	-0,015625
	0,078125	-2,250000	-0,031250
	-0,078125	-1,703125	-0,046875
	-0,203125	-1,171875	-0,109375
	-0,265625	-0,703125	-0,234375
	-0,171875	0,046875	-0,468750
	-0,000000	0,406250	-0,421875
	-0,000000	0,671875	-0,390625
	0,046875	0,906250	-0,328125
	0,093750	0,953125	-0,281250
	0,140625	0,703125	-0,296875
	0,109375	0,656250	-0,359375
	0,125000	0,625000	-0,390625
	0,140625	0,484375	-0,328125
	0,140625	0,140625	-0,218750
	0,109375	-0,046875	-0,156250
	0,109375	-0,171875	-0,093750
	0,109375	-0,281250	-0,031250
	0,093750	-0,390625	-0,031250
	0,078125	-0,406250	-0,015625
	0,078125	-0,375000	-0,000000
	0,078125	-0,406250	-0,031250
	0,031250	-0,265625	-0,062500
	0,031250	-0,218750	-0,046875
	-0,015625	-0,171875	-0,015625
	-0,046875	-0,093750	0,015625
	-0,078125	-0,031250	0,062500
	-0,062500	-0,000000	0,140625
	-0,031250	-0,015625	0,140625
	-0,078125	0,015625	0,140625
	0,015625	0,031250	0,140625
	-0,000000	0,062500	0,062500
	0,015625	0,093750	0,046875
	0,031250	0,125000	0,046875
	0,046875	0,109375	0,062500
	0,062500	0,046875	0,078125
	0,109375	0,015625	0,093750
	0,125000	-0,046875	0,046875
	0,171875	-0,125000	0,015625
	0,171875	-0,203125	-0,031250
	0,203125	-0,281250	-0,031250
	0,171875	-0,328125	-0,062500
	0,187500	-0,437500	-0,140625
	0,156250	-0,640625	-0,156250
	0,187500	-1,140625	-0,312500
	0,156250	-1,453125	-0,234375
	0,093750	-1,718750	-0,234375
	0,312500	-2,468750	-1,703125
	0,359375	-5,500000	-0,046875
	-0,031250	-6,906250	0,750000
	0,031250	-7,187500	0,468750
	0,328125	-7,187500	-0,562500
	0,093750	-5,750000	-0,218750
	0,078125	-4,843750	-0,015625
	0,156250	-4,062500	-0,046875
	0,171875	-3,390625	-0,062500
	0,171875	-2,265625	-0,250000
	0,109375	-1,890625	-0,312500
	0,046875	-1,500000	-0,296875
	-0,031250	-1,093750	-0,265625
	-0,125000	-0,765625	-0,328125
	-0,156250	0,187500	-0,281250
	-0,187500	0,625000	-0,156250
	-0,140625	0,875000	-0,078125
	-0,015625	1,187500	-0,187500
	0,078125	1,359375	-0,437500
	0,156250	1,281250	-0,484375
	0,187500	1,046875	-0,375000
	0,250000	0,734375	-0,265625
	0,343750	-0,265625	-0,109375
	0,250000	-0,531250	-0,093750
	0,171875	-0,671875	-0,093750
	0,125000	-0,703125	-0,140625
	0,125000	-0,687500	-0,156250
	0,093750	-0,578125	-0,125000
	0,062500	-0,421875	-0,140625
	-0,000000	-0,234375	-0,109375
	-0,031250	-0,093750	-0,062500
	-0,093750	-0,062500	-0,015625
	-0,109375	-0,031250	0,046875
	-0,078125	-0,046875	0,062500
	-0,015625	-0,031250	0,078125
	-0,000000	-0,031250	0,093750
	-0,046875	-0,046875	0,078125
	-0,031250	-0,015625	0,093750
	-0,031250	-0,000000	0,093750
	0,046875	0,109375	0,109375
	-0,015625	0,031250	0,078125
	-0,000000	0,062500	0,046875
	0,031250	0,078125	0,046875
	0,031250	0,015625	0,031250
	0,015625	-0,031250	0,015625
	0,046875	-0,015625	0,015625
	0,062500	-0,046875	0,015625
	0,046875	-0,046875	-0,062500
	0,062500	-0,140625	-0,140625
	0,125000	-0,187500	-0,125000
	0,093750	-0,281250	-0,140625
	0,046875	-0,359375	-0,093750
	0,156250	-0,703125	-0,203125
	0,203125	-0,953125	-0,312500
	0,187500	-1,218750	-0,359375
	0,171875	-1,546875	-0,328125
	0,343750	-3,328125	-0,953125
	0,359375	-5,062500	-0,500000
	0,609375	-6,671875	0,593750
	0,562500	-6,781250	0,437500
	0,796875	-6,265625	-0,812500
	0,609375	-5,750000	-0,390625
	0,500000	-5,109375	-0,046875
	0,390625	-4,546875	0,125000
	0,250000	-4,015625	0,125000
	0,171875	-2,890625	-0,062500
	0,125000	-2,453125	-0,171875
	-0,000000	-2,125000	-0,218750
	-0,125000	-1,796875	-0,250000
	-0,265625	-0,796875	-0,140625
	-0,281250	-0,312500	-0,234375
	-0,218750	0,140625	-0,218750
	-0,140625	0,578125	-0,156250
	0,046875	1,296875	-0,171875
	0,156250	1,296875	-0,296875
	0,187500	1,187500	-0,578125
	0,265625	1,093750	-0,671875
	0,312500	0,687500	-0,453125
	0,328125	0,421875	-0,296875
	0,328125	0,062500	-0,187500
	0,281250	-0,296875	-0,187500
	0,171875	-0,390625	-0,125000
	0,109375	-0,703125	0,031250
	0,078125	-0,796875	0,015625
	0,046875	-0,703125	0,031250
	0,062500	-0,500000	-0,000000
	0,093750	-0,250000	-0,000000
	0,062500	-0,156250	0,015625
	0,109375	-0,078125	0,031250
	0,078125	-0,125000	0,031250
	0,031250	-0,171875	-0,015625
	-0,031250	-0,203125	-0,000000
	-0,046875	-0,125000	0,031250
	-0,046875	-0,000000	0,062500
	-0,093750	0,125000	0,078125
	-0,078125	0,171875	0,046875
	-0,093750	0,250000	0,031250
	-0,046875	0,265625	0,015625
	-0,046875	0,250000	-0,031250
	-0,000000	0,187500	-0,015625
	-0,000000	0,078125	-0,015625
	0,031250	0,015625	0,015625
	0,031250	-0,046875	0,031250
	0,062500	-0,140625	0,015625
	0,078125	-0,156250	0,031250
	0,062500	-0,171875	0,046875
	0,078125	-0,250000	0,062500
	0,031250	-0,328125	0,062500
	0,062500	-0,468750	-0,000000
	0,078125	-0,640625	-0,078125
	0,171875	-0,734375	-0,265625
	0,125000	-1,250000	-0,515625
	0,265625	-1,656250	-1,218750
	0,390625	-2,468750	-1,859375
	0,343750	-3,765625	-1,406250
	0,781250	-5,546875	-0,234375
	0,734375	-6,968750	0,593750
	0,609375	-6,656250	-0,781250
	0,562500	-6,296875	-1,296875
	0,468750	-5,656250	-0,625000
	0,265625	-4,312500	-0,031250
	0,203125	-3,718750	-0,187500
	0,281250	-3,093750	-0,250000
	0,265625	-2,640625	-0,203125
	0,046875	-1,953125	0,015625
	-0,046875	-1,546875	-0,015625
	-0,109375	-1,156250	-0,187500
	-0,109375	-0,765625	-0,296875
	-0,156250	0,031250	-0,437500
	-0,046875	0,546875	-0,421875
	-0,078125	0,937500	-0,515625
	-0,078125	1,156250	-0,593750
	-0,000000	1,187500	-0,515625
	0,046875	1,109375	-0,437500
	0,093750	0,968750	-0,406250
	0,140625	0,812500	-0,406250
	0,187500	0,578125	-0,359375
	0,265625	-0,125000	-0,218750
	0,281250	-0,437500	-0,109375
	0,234375	-0,640625	-0,031250
	0,281250	-0,703125	0,046875
	0,140625	-0,796875	0,015625
	0,125000	-0,703125	-0,015625
	0,078125	-0,531250	-0,046875
	0,078125	-0,390625	-0,031250
	0,015625	-0,218750	0,078125
	-0,000000	-0,125000	0,125000
	-0,031250	-0,046875	0,140625
	-0,031250	-0,031250	0,171875
	0,015625	0,015625	0,203125
	0,015625	-0,000000	0,171875
	-0,000000	-0,000000	0,140625
	-0,015625	0,031250	0,093750
	-0,015625	0,093750	0,031250
	-0,000000	0,218750	-0,062500
	0,015625	0,250000	-0,078125
	0,015625	0,250000	-0,109375
	0,031250	0,218750	-0,109375
	0,093750	0,078125	-0,109375
	0,093750	0,031250	-0,046875
	0,109375	-0,062500	-0,031250
	0,109375	-0,140625	-0,093750
	0,125000	-0,218750	-0,109375
	0,109375	-0,312500	-0,171875
	0,062500	-0,406250	-0,125000
	0,109375	-0,515625	-0,078125
	0,203125	-0,859375	-0,218750
	0,156250	-1,062500	-0,187500
	0,234375	-1,359375	-0,171875
	0,343750	-1,906250	-0,875000
	0,359375	-2,968750	-1,046875
	-0,000000	-5,343750	0,921875
	0,406250	-4,984375	0,218750
	0,453125	-4,812500	-0,312500
	0,546875	-4,593750	-0,640625
	0,484375	-4,328125	-0,703125
	0,406250	-3,890625	-0,546875
	0,296875	-3,421875	-0,468750
	0,281250	-2,984375	-0,359375
	0,187500	-2,109375	-0,078125
	0,203125	-1,796875	0,062500
	0,203125	-1,484375	0,218750
	0,203125	-1,171875	0,281250
	0,312500	-0,796875	0,187500
	0,218750	-0,687500	0,125000
	0,171875	-0,546875	0,046875
	0,093750	-0,359375	0,031250
	0,046875	-0,187500	0,015625
	0,109375	0,125000	0,265625
	0,140625	0,328125	0,140625
	-0,015625	0,390625	0,015625
	-0,015625	0,312500	0,062500
	0,203125	0,281250	-0,031250
	0,140625	0,328125	-0,093750
	0,156250	0,312500	-0,093750
	0,156250	0,265625	-0,156250
	0,234375	0,109375	-0,140625
	0,265625	0,015625	-0,125000
	0,234375	-0,125000	-0,140625
	0,187500	-0,171875	-0,187500
	0,125000	-0,109375	-0,281250
	0,093750	-0,093750	-0,312500
	0,093750	-0,140625	-0,328125
	0,125000	-0,140625	-0,312500
	0,171875	-0,171875	-0,359375
	0,281250	-0,265625	-0,609375
	0,250000	-0,390625	-0,796875
	0,187500	-0,500000	-1,078125
	0,125000	-0,531250	-1,218750
	-0,062500	-0,843750	-1,765625
	-0,218750	-1,437500	-1,812500
	0,593750	-4,421875	1,296875
	-0,093750	-5,890625	0,250000
	0,500000	-4,359375	-0,031250
	0,359375	-3,000000	-0,593750
	0,171875	-1,984375	-0,718750
	0,078125	-1,437500	-0,640625
	-0,015625	-1,062500	-0,515625
	-0,375000	-1,125000	-0,437500
	-0,281250	-1,031250	-0,421875
	-0,125000	-0,828125	-0,343750
	0,109375	-0,656250	-0,250000
	0,109375	-0,453125	-0,203125
	0,125000	-0,375000	-0,203125
	0,109375	-0,296875	-0,156250
	0,125000	-0,234375	-0,109375
	0,171875	-0,171875	0,062500
	0,218750	-0,187500	0,171875
	0,156250	-0,281250	0,265625
	0,140625	-0,359375	0,359375
	0,203125	-0,531250	0,328125
	0,296875	-0,640625	0,250000
	0,406250	-0,703125	0,171875
	0,484375	-0,828125	0,031250
	0,437500	-1,250000	-0,296875
	0,453125	-1,250000	-0,406250
	0,406250	-1,250000	-0,468750
	0,343750	-1,203125	-0,437500
	0,296875	-1,234375	-0,359375
	0,203125	-1,250000	-0,125000
	0,156250	-1,218750	-0,140625
	0,140625	-1,140625	-0,156250
	0,093750	-1,031250	-0,093750
	0,093750	-0,828125	0,015625
	0,109375	-0,750000	-0,046875
	0,203125	-0,703125	-0,218750
	0,390625	-0,703125	-0,515625
	0,671875	-0,765625	-0,406250
	0,578125	-1,156250	-0,296875
	0,421875	-1,421875	-0,437500
	0,125000	-1,656250	-0,578125
	-0,093750	-1,640625	-0,546875
	-0,140625	-1,609375	-0,531250
	-0,140625	-1,593750	-0,562500
	-0,046875	-1,578125	-0,609375
	0,046875	-1,437500	-0,703125
	0,187500	-1,078125	-0,515625
	0,250000	-0,921875	-0,390625
