	-0,000000	-1,078125	-0,000000
	0,062500	-1,031250	0,062500
	-0,000000	-1,062500	0,015625
	-0,000000	-1,046875	0,015625
	-0,000000	-1,062500	0,031250
	-0,015625	-1,078125	0,015625
	-0,015625	-1,062500	0,015625
	-0,000000	-1,046875	0,015625
	-0,015625	-1,078125	-0,000000
	0,015625	-1,031250	-0,000000
	-0,015625	-1,062500	-0,000000
	0,015625	-1,031250	0,031250
	0,015625	-1,046875	-0,015625
	-0,015625	-1,078125	0,015625
	0,015625	-1,000000	0,031250
	0,015625	-1,031250	-0,000000
	0,015625	-1,046875	0,031250
	0,015625	-1,046875	0,015625
	-0,000000	-1,062500	-0,000000
	-0,000000	-1,093750	-0,000000
	0,015625	-1,062500	-0,000000
	-0,000000	-1,046875	0,031250
	-0,000000	-1,078125	0,031250
	-0,015625	-1,046875	-0,000000
	-0,000000	-1,078125	-0,015625
	-0,000000	-1,062500	0,015625
	0,015625	-1,062500	-0,000000
	-0,000000	-1,078125	-0,000000
	0,015625	-1,062500	0,015625
	0,015625	-1,078125	-0,000000
	-0,000000	-1,062500	0,015625
	0,062500	-1,046875	0,046875
	-0,000000	-1,078125	0,015625
	-0,000000	-1,078125	-0,000000
	-0,000000	-1,062500	0,015625
	0,015625	-1,062500	-0,015625
	0,015625	-1,062500	-0,000000
	-0,000000	-1,031250	0,015625
	-0,000000	-1,046875	0,015625
	0,015625	-1,062500	-0,000000
	0,015625	-1,062500	-0,000000
	0,015625	-1,031250	-0,000000
	0,031250	-1,046875	-0,000000
	-0,015625	-1,078125	-0,000000
	0,015625	-1,046875	-0,015625
	0,031250	-1,062500	-0,000000
	-0,000000	-1,046875	0,031250
	0,015625	-1,062500	0,031250
	0,015625	-1,062500	-0,000000
	-0,000000	-1,078125	-0,000000
	-0,000000	-1,078125	-0,000000
	0,015625	-1,062500	0,015625
	-0,000000	-1,078125	-0,000000
	-0,000000	-1,062500	0,015625
	0,046875	-1,031250	-0,000000
	-0,000000	-1,062500	0,015625
	-0,000000	-1,062500	0,015625
	-0,015625	-1,078125	0,031250
	0,015625	-1,062500	0,015625
	-0,000000	-1,062500	-0,015625
	-0,000000	-1,062500	0,015625
	0,046875	-1,062500	0,031250
	-0,015625	-1,046875	0,015625
	-0,000000	-1,062500	-0,000000
	0,015625	-1,046875	0,031250
	-0,000000	-1,093750	0,015625
	-0,000000	-1,078125	-0,000000
	0,015625	-1,062500	-0,015625
	-0,031250	-1,046875	-0,000000
	0,015625	-1,062500	-0,015625
	-0,000000	-1,062500	-0,000000
	0,031250	-1,031250	0,031250
	0,015625	-1,062500	0,031250
	-0,000000	-1,046875	0,015625
	0,015625	-1,078125	-0,031250
	-0,000000	-1,062500	-0,000000
	-0,000000	-1,046875	0,015625
	-0,015625	-1,078125	-0,000000
	0,015625	-1,078125	-0,000000
	-0,015625	-1,062500	-0,000000
	0,031250	-1,046875	0,015625
	-0,000000	-1,062500	0,015625
	-0,000000	-1,062500	0,015625
	-0,015625	-1,031250	-0,015625
	-0,000000	-1,078125	0,015625
	0,015625	-1,062500	-0,000000
	0,015625	-1,062500	-0,000000
	-0,000000	-1,062500	0,015625
	0,015625	-1,062500	-0,000000
	0,015625	-1,046875	0,031250
	-0,015625	-1,062500	0,015625
	0,046875	-1,046875	0,031250
	-0,015625	-1,078125	0,015625
	0,015625	-1,062500	0,015625
	-0,015625	-1,062500	0,015625
	-0,000000	-1,078125	-0,000000
	0,015625	-1,031250	-0,000000
	0,015625	-1,062500	0,015625
	-0,015625	-1,078125	0,015625
	0,015625	-1,062500	-0,000000
	-0,000000	-1,046875	-0,000000
	0,031250	-1,015625	0,015625
	-0,000000	-1,046875	0,015625
	0,015625	-1,062500	-0,000000
	0,015625	-1,078125	0,031250
	0,015625	-1,046875	0,015625
	-0,000000	-1,046875	0,031250
	-0,000000	-1,046875	-0,000000
	-0,000000	-1,078125	-0,000000
	-0,000000	-1,078125	-0,000000
	-0,000000	-1,062500	-0,015625
	0,031250	-1,046875	-0,000000
	0,031250	-1,062500	0,015625
	0,015625	-1,046875	-0,000000
	0,046875	-1,015625	0,031250
	0,046875	-1,046875	0,031250
	-0,000000	-1,062500	0,015625
	-0,015625	-1,078125	-0,000000
	-0,000000	-1,062500	-0,000000
	-0,000000	-1,062500	0,015625
	0,015625	-1,062500	0,015625
	0,015625	-1,015625	0,046875
	0,015625	-1,046875	0,015625
	-0,015625	-1,093750	0,015625
	0,015625	-1,062500	0,031250
	0,031250	-1,078125	-0,000000
	0,015625	-1,031250	0,015625
	0,015625	-1,062500	-0,000000
	-0,000000	-1,046875	0,015625
	0,031250	-1,062500	0,015625
	-0,000000	-1,078125	-0,000000
	0,046875	-1,031250	0,062500
	-0,000000	-1,062500	0,015625
	-0,015625	-1,062500	0,031250
	-0,000000	-1,046875	-0,015625
	0,015625	-1,062500	0,046875
	-0,000000	-1,062500	-0,000000
	-0,015625	-1,046875	0,031250
	0,015625	-1,062500	0,015625
	-0,000000	-1,062500	0,015625
	-0,000000	-1,062500	-0,000000
	-0,000000	-1,031250	0,015625
	0,015625	-1,062500	-0,000000
	0,015625	-1,046875	-0,000000
	-0,000000	-1,046875	0,015625
	0,015625	-1,031250	0,031250
	-0,000000	-1,062500	0,015625
	-0,015625	-1,062500	0,015625
	-0,000000	-1,062500	0,015625
	0,015625	-1,046875	-0,000000
	-0,000000	-1,093750	0,015625
	0,046875	-1,046875	0,031250
	-0,000000	-1,078125	-0,000000
	0,015625	-1,062500	-0,000000
	0,015625	-1,046875	-0,000000
	0,015625	-1,078125	-0,000000
	-0,000000	-1,046875	-0,000000
	0,015625	-1,062500	0,015625
	-0,000000	-1,078125	-0,000000
	-0,000000	-1,046875	0,015625
	0,015625	-1,046875	0,015625
	0,046875	-1,015625	0,062500
	0,015625	-1,078125	-0,000000
	0,031250	-1,046875	0,015625
	-0,000000	-1,062500	0,015625
	-0,000000	-1,062500	-0,000000
	-0,000000	-1,062500	0,031250
	0,015625	-1,078125	-0,015625
	-0,000000	-1,062500	-0,015625
	-0,000000	-1,078125	0,031250
	0,015625	-1,062500	-0,000000
	-0,015625	-1,031250	0,031250
	0,015625	-1,015625	-0,015625
	-0,000000	-1,078125	-0,000000
	0,015625	-1,062500	-0,000000
	-0,000000	-1,078125	-0,000000
	0,015625	-1,078125	-0,000000
	0,015625	-1,046875	-0,000000
	0,015625	-1,046875	0,015625
	0,015625	-1,062500	-0,000000
	-0,000000	-1,062500	0,015625
	0,031250	-1,046875	0,062500
	-0,000000	-1,046875	-0,015625
	-0,015625	-1,046875	-0,000000
	0,031250	-1,062500	0,031250
	0,015625	-1,078125	-0,000000
	0,015625	-1,062500	-0,000000
	0,015625	-1,062500	-0,000000
	-0,000000	-1,078125	-0,000000
	-0,000000	-1,078125	0,015625
	-0,000000	-1,062500	-0,015625
	0,046875	-1,031250	0,046875
	0,015625	-1,046875	-0,000000
	0,015625	-1,062500	-0,000000
	0,015625	-1,046875	0,031250
	0,031250	-1,046875	-0,000000
	0,015625	-1,062500	0,015625
	0,015625	-1,046875	0,015625
	-0,000000	-1,046875	0,046875
	0,015625	-1,046875	-0,015625
	-0,000000	-1,078125	0,015625
	0,031250	-1,046875	-0,000000
	-0,000000	-1,031250	0,015625
	0,015625	-1,062500	-0,000000
	-0,000000	-1,078125	-0,000000
	-0,015625	-1,078125	-0,015625
	0,046875	-1,062500	-0,000000
	0,015625	-1,046875	0,015625
	-0,000000	-1,078125	0,031250
	-0,015625	-1,062500	-0,015625
	0,015625	-1,062500	0,031250
	0,046875	-1,015625	0,031250
	0,015625	-1,031250	-0,000000
	0,015625	-1,062500	0,015625
	0,015625	-1,062500	0,015625
	0,031250	-1,031250	0,031250
	0,015625	-1,078125	0,031250
	0,015625	-1,046875	0,015625
	-0,000000	-1,062500	0,015625
	-0,000000	-1,078125	0,015625
	0,031250	-1,046875	0,015625
	0,062500	-1,046875	0,031250
	0,015625	-1,031250	0,015625
	-0,000000	-1,062500	-0,000000
	-0,000000	-1,078125	0,015625
	0,015625	-1,062500	-0,000000
	-0,000000	-1,062500	0,015625
	0,015625	-1,062500	-0,015625
	-0,015625	-1,062500	-0,000000
	-0,015625	-1,062500	-0,000000
	0,015625	-1,031250	0,015625
	0,031250	-1,046875	-0,000000
	0,031250	-1,046875	-0,000000
	0,031250	-1,046875	-0,000000
	0,015625	-1,062500	0,015625
	0,015625	-1,062500	0,015625
	0,015625	-1,046875	-0,000000
	0,015625	-1,078125	-0,000000
	-0,000000	-1,062500	0,015625
	0,015625	-1,062500	0,031250
	-0,000000	-1,078125	-0,000000
	-0,000000	-1,062500	0,015625
	0,015625	-1,031250	-0,000000
	-0,000000	-1,046875	0,031250
	0,062500	-1,046875	0,031250
	-0,000000	-1,062500	0,015625
	0,015625	-1,046875	-0,000000
	-0,015625	-1,062500	0,031250
	-0,000000	-1,062500	0,015625
	0,031250	-1,078125	-0,000000
	-0,015625	-1,062500	-0,000000
	0,046875	-1,031250	0,031250
	-0,015625	-1,078125	0,015625
	0,015625	-1,062500	0,031250
	-0,015625	-1,046875	0,031250
	0,015625	-1,046875	-0,015625
	0,015625	-1,046875	0,015625
	-0,000000	-1,046875	-0,000000
	0,015625	-1,046875	0,015625
	0,015625	-1,046875	0,031250
	0,015625	-1,062500	-0,000000
	0,046875	-1,015625	-0,000000
	0,031250	-1,046875	0,015625
	0,015625	-1,046875	-0,000000
	0,015625	-1,062500	-0,000000
	-0,000000	-1,062500	0,015625
	-0,000000	-1,046875	-0,000000
	0,015625	-1,062500	-0,000000
	0,015625	-1,062500	0,015625
	0,031250	-1,031250	-0,000000
	0,015625	-1,031250	0,015625
	-0,000000	-1,078125	0,046875
	-0,015625	-1,062500	0,015625
	-0,000000	-1,046875	0,015625
	0,015625	-1,062500	-0,000000
	0,031250	-1,015625	-0,000000
	-0,000000	-1,078125	0,015625
	-0,015625	-1,078125	-0,000000
	-0,000000	-1,078125	0,015625
	-0,015625	-1,062500	-0,000000
	-0,000000	-1,078125	0,015625
	0,046875	-1,031250	0,031250
	0,015625	-1,062500	-0,000000
	0,015625	-1,062500	0,015625
	-0,000000	-1,062500	0,015625
	-0,000000	-1,046875	0,015625
	0,015625	-1,031250	0,015625
	-0,000000	-1,109375	0,031250
	-0,000000	-1,046875	0,015625
	0,015625	-1,078125	-0,000000
	-0,000000	-1,046875	-0,000000
	0,046875	-1,015625	0,015625
	0,031250	-1,046875	-0,000000
	-0,000000	-1,046875	0,015625
	0,031250	-1,046875	0,031250
	-0,000000	-1,046875	-0,000000
	0,031250	-1,078125	-0,000000
	0,015625	-1,062500	0,015625
	-0,000000	-1,062500	0,031250
	0,015625	-1,046875	-0,000000
	-0,000000	-1,078125	-0,015625
	0,015625	-1,062500	0,015625
	0,015625	-1,078125	0,015625
	0,031250	-1,062500	0,015625
	-0,000000	-1,062500	0,015625
	0,015625	-1,093750	-0,000000
	0,015625	-1,062500	-0,015625
	-0,000000	-1,062500	-0,000000
	0,031250	-1,062500	-0,031250
	0,015625	-1,031250	-0,015625
	0,031250	-1,078125	0,015625
	0,046875	-1,015625	0,031250
	-0,015625	-1,046875	0,031250
	0,015625	-1,046875	-0,015625
	0,015625	-1,062500	0,015625
	0,031250	-1,078125	0,031250
	0,015625	-1,046875	-0,015625
	-0,000000	-1,078125	0,015625
	0,015625	-1,046875	0,015625
	0,015625	-1,062500	0,015625
	-0,015625	-1,062500	0,015625
	0,015625	-1,046875	0,031250
	0,015625	-1,046875	0,015625
	0,031250	-1,046875	-0,000000
	-0,000000	-1,062500	0,031250
	0,046875	-1,046875	-0,000000
	0,015625	-1,062500	-0,000000
	-0,000000	-1,046875	-0,000000
	-0,000000	-1,046875	-0,000000
	-0,015625	-1,046875	0,015625
	0,031250	-1,046875	0,015625
	0,015625	-1,031250	-0,000000
	-0,000000	-1,062500	0,031250
	-0,000000	-1,062500	-0,015625
	-0,062500	-1,062500	-0,015625
	-0,015625	-1,078125	0,015625
	-0,000000	-1,078125	0,015625
	-0,000000	-1,062500	0,031250
	-0,000000	-1,062500	0,015625
	0,015625	-1,046875	0,046875
	-0,000000	-1,046875	0,015625
	0,046875	-1,046875	0,046875
	-0,000000	-1,078125	-0,000000
	0,046875	-1,046875	0,046875
	-0,000000	-1,062500	0,031250
	0,015625	-1,062500	0,015625
	-0,000000	-1,062500	0,046875
	-0,000000	-1,078125	-0,000000
	0,031250	-1,062500	-0,000000
	-0,000000	-1,046875	0,015625
	-0,000000	-1,078125	-0,015625
	0,046875	-1,031250	0,031250
	0,015625	-1,031250	0,031250
	0,015625	-1,046875	-0,000000
	-0,000000	-1,046875	-0,000000
	-0,000000	-1,062500	-0,000000
	0,046875	-1,062500	-0,000000
	0,015625	-1,062500	-0,000000
	-0,000000	-1,062500	-0,000000
	-0,000000	-1,031250	-0,015625
	-0,000000	-1,062500	0,015625
	-0,000000	-1,062500	-0,015625
	0,062500	-1,062500	0,015625
	-0,000000	-1,062500	0,015625
	0,015625	-1,078125	0,015625
	-0,015625	-1,078125	0,015625
	0,031250	-1,078125	0,031250
	-0,000000	-1,062500	0,015625
	-0,000000	-1,046875	0,031250
	-0,000000	-1,062500	-0,015625
	-0,015625	-1,078125	0,015625
	0,046875	-1,000000	0,015625
	-0,000000	-1,062500	-0,000000
	-0,015625	-1,078125	-0,000000
	0,015625	-1,046875	-0,015625
	0,015625	-1,062500	0,015625
	0,031250	-1,031250	-0,000000
	0,015625	-1,062500	-0,000000
	-0,000000	-1,031250	0,015625
	-0,000000	-1,093750	0,015625
	-0,000000	-1,062500	0,015625
	0,031250	-1,015625	0,046875
	0,015625	-1,062500	-0,000000
	0,015625	-1,062500	-0,000000
	-0,015625	-1,062500	0,015625
	0,015625	-1,046875	0,015625
	0,015625	-1,078125	0,031250
	0,015625	-1,062500	-0,000000
	0,015625	-1,062500	-0,000000
	-0,000000	-1,046875	-0,000000
	-0,000000	-1,078125	-0,031250
	0,031250	-1,031250	0,031250
	0,015625	-1,031250	0,046875
	0,015625	-1,046875	0,015625
	0,015625	-1,062500	-0,000000
	0,015625	-1,062500	-0,000000
	-0,000000	-1,078125	0,015625
	0,015625	-1,046875	0,015625
	-0,000000	-1,078125	0,015625
	-0,000000	-1,062500	0,015625
	-0,000000	-1,046875	0,015625
	0,031250	-1,046875	0,046875
	-0,000000	-1,062500	0,031250
	0,031250	-1,062500	0,015625
	-0,000000	-1,046875	-0,000000
	-0,000000	-1,062500	0,015625
	0,031250	-1,046875	0,015625
	0,031250	-1,078125	0,031250
	-0,000000	-1,078125	0,031250
	0,031250	-1,078125	-0,000000
	0,015625	-1,046875	0,015625
	0,031250	-1,062500	-0,000000
	0,015625	-1,046875	0,031250
	-0,000000	-1,062500	-0,000000
	0,062500	-1,000000	0,015625
	0,015625	-1,062500	0,015625
	-0,000000	-1,046875	0,015625
	0,031250	-1,046875	0,015625
	0,015625	-1,046875	-0,000000
	0,015625	-1,062500	-0,015625
	-0,000000	-1,078125	0,031250
	0,031250	-1,015625	0,031250
	0,015625	-1,015625	0,015625
	0,031250	-1,046875	0,015625
	-0,000000	-1,046875	-0,000000
	-0,015625	-1,078125	-0,000000
	-0,000000	-1,062500	-0,000000
	0,015625	-1,046875	0,031250
	0,031250	-1,062500	-0,000000
	0,015625	-1,062500	-0,000000
	0,015625	-1,062500	-0,000000
	-0,000000	-1,062500	0,046875
	0,015625	-1,062500	-0,015625
	0,015625	-1,046875	-0,000000
	-0,000000	-1,078125	0,015625
	-0,000000	-1,062500	0,015625
	0,015625	-1,046875	-0,000000
	0,015625	-1,031250	-0,000000
	-0,000000	-1,062500	-0,015625
	-0,000000	-1,062500	0,015625
	0,015625	-1,062500	0,015625
	0,031250	-1,031250	0,046875
	0,015625	-1,062500	0,015625
	-0,015625	-1,062500	-0,015625
	0,015625	-1,078125	0,031250
	-0,000000	-1,046875	0,015625
	-0,000000	-1,046875	0,015625
	0,015625	-1,062500	-0,000000
	0,015625	-1,078125	0,015625
	0,015625	-1,062500	-0,000000
	-0,000000	-1,078125	0,031250
	0,031250	-1,062500	0,031250
	0,031250	-1,046875	0,015625
	-0,000000	-1,046875	0,015625
	0,046875	-1,046875	0,046875
	0,031250	-1,062500	0,031250
	0,015625	-1,046875	-0,000000
	0,015625	-1,046875	0,031250
	0,031250	-1,046875	0,015625
	0,031250	-1,046875	-0,000000
	0,015625	-1,062500	-0,000000
	-0,000000	-1,062500	0,015625
	0,031250	-1,062500	0,015625
	-0,000000	-1,062500	0,015625
	-0,000000	-1,062500	-0,000000
	-0,015625	-1,046875	0,015625
	-0,000000	-1,062500	-0,000000
	0,015625	-1,062500	0,015625
	-0,000000	-1,046875	-0,015625
	0,015625	-1,062500	-0,000000
	0,031250	-1,062500	0,015625
	0,046875	-1,000000	0,031250
	0,031250	-1,046875	-0,000000
	0,015625	-1,062500	0,031250
	-0,000000	-1,062500	0,015625
	-0,015625	-1,078125	-0,000000
	-0,000000	-1,062500	0,015625
	0,015625	-1,078125	0,031250
	0,015625	-1,046875	0,015625
	-0,000000	-1,046875	0,031250
	-0,000000	-1,046875	-0,000000
	0,031250	-1,015625	0,046875
	0,015625	-1,031250	0,031250
	0,015625	-1,046875	0,015625
	-0,000000	-1,046875	-0,031250
	0,015625	-1,062500	-0,000000
	-0,000000	-1,078125	0,015625
	0,015625	-1,078125	0,015625
	0,015625	-1,062500	0,015625
	0,015625	-1,078125	-0,000000
	0,015625	-1,046875	0,015625
	0,031250	-1,046875	0,046875
	-0,000000	-1,046875	0,015625
	-0,000000	-1,062500	0,031250
	0,015625	-1,046875	0,031250
	0,015625	-1,078125	0,031250
	0,015625	-1,046875	0,015625
	-0,000000	-1,078125	0,015625
	0,015625	-1,062500	0,046875
	0,015625	-1,031250	0,015625
	0,015625	-1,062500	0,015625
	0,062500	-1,015625	0,031250
	-0,000000	-1,078125	0,015625
	-0,000000	-1,046875	0,015625
	0,015625	-1,046875	0,015625
	-0,000000	-1,078125	0,031250
	0,015625	-1,062500	-0,000000
	0,015625	-1,062500	0,031250
	0,015625	-1,062500	0,015625
	0,015625	-1,062500	-0,015625
	-0,000000	-1,078125	0,015625
	0,046875	-1,046875	0,046875
	0,031250	-1,046875	0,015625
	-0,000000	-1,062500	-0,015625
	0,062500	-1,046875	0,062500
	0,015625	-1,078125	0,046875
	-0,000000	-1,062500	0,031250
	-0,000000	-1,062500	-0,015625
	-0,015625	-1,062500	0,015625
	-0,000000	-1,078125	0,031250
	0,015625	-1,046875	-0,015625
	0,015625	-1,062500	0,015625
	-0,000000	-1,062500	0,031250
	-0,000000	-1,062500	0,015625
	-0,000000	-1,062500	0,031250
	-0,031250	-1,062500	0,015625
	0,031250	-1,078125	0,015625
	-0,000000	-1,062500	0,015625
	-0,015625	-1,078125	0,031250
	-0,000000	-1,078125	0,031250
	-0,000000	-1,046875	0,015625
	0,046875	-1,015625	0,046875
	-0,000000	-1,046875	0,015625
	0,015625	-1,046875	0,015625
	-0,015625	-1,078125	0,015625
	-0,000000	-1,046875	0,031250
	0,015625	-1,062500	-0,000000
	-0,000000	-1,046875	0,015625
	-0,015625	-1,062500	0,015625
	0,015625	-1,031250	0,015625
	-0,000000	-1,078125	0,015625
	0,046875	-1,015625	0,062500
	0,015625	-1,062500	0,031250
	0,015625	-1,046875	-0,000000
	-0,000000	-1,078125	0,031250
	-0,000000	-1,062500	0,031250
	0,015625	-1,062500	0,015625
	0,015625	-1,046875	0,046875
	0,015625	-1,078125	0,015625
	0,015625	-1,062500	0,015625
	-0,000000	-1,046875	-0,000000
	-0,000000	-1,062500	-0,000000
	-0,000000	-1,093750	0,015625
	-0,000000	-1,046875	0,015625
	0,015625	-1,031250	-0,000000
	0,015625	-1,046875	0,031250
	-0,000000	-1,062500	0,015625
	-0,000000	-1,062500	0,031250
	-0,000000	-1,062500	-0,000000
	0,015625	-1,046875	0,015625
	-0,000000	-1,078125	0,031250
	0,046875	-1,046875	0,062500
	0,015625	-1,062500	-0,000000
	0,015625	-1,062500	0,015625
	0,031250	-1,062500	0,015625
	0,015625	-1,031250	-0,000000
	0,015625	-1,062500	0,031250
	0,015625	-1,046875	0,031250
	-0,000000	-1,046875	-0,000000
	-0,000000	-1,078125	0,015625
	-0,000000	-1,062500	0,015625
	0,031250	-1,015625	0,031250
	0,015625	-1,062500	-0,000000
	0,046875	-1,046875	0,031250
	0,015625	-1,062500	0,015625
	-0,015625	-1,062500	-0,000000
	-0,015625	-1,078125	0,015625
	-0,000000	-1,078125	-0,000000
	0,015625	-1,046875	0,015625
	0,015625	-1,062500	-0,015625
	-0,000000	-1,078125	0,031250
	0,015625	-1,031250	0,015625
	0,078125	-1,046875	0,046875
	-0,000000	-1,031250	-0,000000
	0,031250	-1,046875	0,015625
	-0,000000	-1,046875	0,031250
	0,015625	-1,046875	0,015625
	0,031250	-1,046875	-0,000000
	0,031250	-1,031250	-0,000000
	-0,000000	-1,062500	0,015625
	0,015625	-1,093750	-0,000000
	0,046875	-1,031250	0,046875
	0,015625	-1,062500	0,015625
	0,015625	-1,046875	-0,015625
	0,015625	-1,078125	-0,031250
	-0,015625	-1,062500	-0,000000
	0,015625	-1,062500	-0,000000
	0,031250	-1,046875	0,015625
	-0,000000	-1,062500	0,031250
	-0,000000	-1,031250	-0,000000
	0,015625	-1,046875	0,015625
	0,031250	-1,015625	0,031250
	-0,000000	-1,078125	0,015625
	0,015625	-1,062500	0,015625
	-0,000000	-1,062500	-0,000000
	-0,000000	-1,046875	0,015625
	-0,015625	-1,093750	-0,000000
	-0,000000	-1,046875	-0,000000
	-0,000000	-1,078125	-0,000000
	-0,000000	-1,078125	-0,015625
	0,015625	-1,078125	0,015625
	-0,000000	-1,031250	0,046875
	0,015625	-1,031250	0,015625
	0,015625	-1,062500	0,031250
	0,031250	-1,046875	0,062500
	0,015625	-1,031250	0,015625
	0,015625	-1,046875	0,015625
	0,031250	-1,046875	-0,015625
	0,015625	-1,078125	0,015625
	-0,000000	-1,062500	0,031250
	0,015625	-1,046875	0,015625
	0,046875	-0,984375	0,031250
	0,015625	-1,046875	0,015625
	-0,000000	-1,078125	-0,000000
	0,015625	-1,031250	-0,015625
	0,015625	-1,046875	-0,000000
	-0,000000	-1,062500	-0,000000
	0,046875	-1,062500	-0,000000
	-0,000000	-1,078125	0,031250
	-0,000000	-1,078125	-0,000000
	0,015625	-1,031250	0,015625
	0,046875	-1,031250	0,031250
	0,015625	-1,046875	-0,000000
	0,015625	-1,046875	-0,031250
	-0,000000	-1,062500	-0,000000
	-0,000000	-1,078125	-0,000000
	0,031250	-1,046875	0,015625
	0,015625	-1,062500	-0,000000
	0,015625	-1,046875	-0,000000
	-0,000000	-1,062500	-0,000000
	-0,000000	-1,062500	0,015625
	0,046875	-1,046875	0,031250
	0,031250	-1,031250	-0,015625
	0,015625	-1,062500	-0,015625
	-0,000000	-1,062500	0,015625
	0,015625	-1,078125	-0,000000
	-0,000000	-1,078125	-0,015625
	-0,015625	-1,062500	-0,000000
	0,015625	-1,031250	-0,000000
	-0,015625	-1,062500	-0,000000
	0,015625	-1,046875	-0,000000
	0,031250	-1,062500	-0,015625
	0,015625	-1,046875	-0,015625
	0,015625	-1,062500	-0,000000
	-0,000000	-1,062500	-0,015625
	0,015625	-1,046875	-0,031250
	0,015625	-1,046875	-0,015625
	-0,000000	-1,031250	-0,000000
	-0,000000	-1,078125	-0,015625
	-0,000000	-1,062500	0,015625
	-0,000000	-1,062500	-0,015625
	0,031250	-1,015625	0,015625
	0,015625	-1,062500	-0,031250
	0,015625	-1,046875	0,015625
	-0,000000	-1,062500	0,015625
	-0,000000	-1,078125	-0,000000
	-0,015625	-1,062500	-0,000000
	0,015625	-1,078125	-0,015625
	-0,000000	-1,062500	0,015625
	0,015625	-1,046875	-0,015625
	0,015625	-1,046875	-0,031250
	0,062500	-1,078125	0,015625
	0,015625	-1,062500	0,015625
	-0,000000	-1,078125	0,015625
	-0,015625	-1,062500	-0,015625
	0,031250	-1,046875	-0,015625
	-0,015625	-1,062500	-0,015625
	0,015625	-1,078125	-0,015625
	-0,000000	-1,078125	-0,015625
	0,015625	-1,062500	-0,000000
	-0,000000	-1,062500	-0,031250
	-0,000000	-1,046875	-0,015625
	0,031250	-1,062500	-0,015625
	-0,000000	-1,062500	-0,015625
	0,015625	-1,109375	-0,015625
	0,015625	-1,093750	0,031250
	-0,000000	-1,062500	-0,000000
	-0,000000	-1,078125	-0,015625
	-0,000000	-1,078125	-0,000000
	0,015625	-1,046875	-0,000000
	0,015625	-1,062500	-0,000000
	0,031250	-1,015625	0,015625
	0,015625	-1,062500	-0,000000
	-0,000000	-1,078125	-0,031250
	0,015625	-1,062500	-0,000000
	-0,000000	-1,078125	-0,015625
	-0,015625	-1,062500	-0,000000
	-0,000000	-1,078125	0,015625
	-0,000000	-1,046875	-0,000000
	-0,000000	-1,046875	0,015625
	-0,000000	-1,078125	-0,015625
	0,031250	-1,046875	-0,000000
	-0,000000	-1,062500	-0,000000
	0,015625	-1,078125	-0,000000
	-0,000000	-1,062500	-0,000000
	-0,000000	-1,078125	-0,015625
	0,015625	-1,078125	-0,000000
	0,015625	-1,078125	0,015625
	-0,000000	-1,062500	-0,015625
	-0,015625	-1,062500	-0,015625
	0,015625	-1,062500	0,015625
	0,031250	-1,078125	0,015625
	0,015625	-1,062500	-0,015625
	0,015625	-1,046875	-0,000000
	0,046875	-1,031250	0,015625
	0,015625	-1,031250	-0,000000
	0,015625	-1,062500	-0,015625
	0,015625	-1,046875	-0,015625
	0,015625	-1,078125	-0,000000
	0,015625	-1,078125	0,015625
	0,015625	-1,046875	-0,015625
	0,031250	-1,000000	0,031250
	0,015625	-1,031250	-0,000000
	-0,015625	-1,062500	-0,000000
	0,015625	-1,062500	-0,015625
	-0,000000	-1,078125	-0,000000
	-0,000000	-1,062500	-0,015625
	0,031250	-1,062500	-0,000000
	0,015625	-1,062500	0,015625
	-0,000000	-1,046875	-0,031250
	0,031250	-1,062500	-0,015625
	0,046875	-1,031250	0,015625
	0,015625	-1,062500	-0,000000
	-0,000000	-1,078125	-0,000000
	-0,000000	-1,078125	-0,000000
	0,015625	-1,062500	-0,015625
	-0,000000	-1,062500	-0,000000
	-0,000000	-1,093750	-0,000000
	0,015625	-1,093750	0,015625
	-0,015625	-1,046875	-0,015625
	-0,000000	-1,062500	-0,015625
	-0,000000	-1,046875	0,031250
	0,015625	-1,062500	0,015625
	-0,000000	-1,062500	-0,000000
	-0,000000	-1,078125	-0,000000
	0,015625	-1,062500	-0,000000
	0,015625	-1,062500	-0,015625
	-0,000000	-1,078125	-0,000000
	-0,015625	-1,062500	-0,015625
	0,015625	-1,078125	-0,000000
	-0,000000	-1,078125	-0,000000
	0,015625	-1,000000	0,046875
	-0,000000	-1,031250	0,031250
	0,015625	-1,062500	-0,000000
	-0,015625	-1,093750	-0,000000
	-0,000000	-1,046875	0,015625
	0,015625	-1,046875	-0,015625
	-0,000000	-1,062500	-0,000000
	-0,000000	-1,062500	-0,000000
	-0,000000	-1,062500	0,015625
	-0,000000	-1,062500	-0,000000
	0,015625	-1,062500	0,031250
	0,015625	-1,062500	0,015625
	0,031250	-1,093750	0,015625
	-0,000000	-1,062500	-0,000000
	-0,000000	-1,046875	0,015625
	-0,000000	-1,078125	-0,000000
	0,015625	-1,046875	0,031250
	0,031250	-1,046875	-0,000000
	0,031250	-1,062500	-0,000000
	0,015625	-1,062500	-0,000000
	0,015625	-1,062500	0,062500
	0,031250	-1,046875	0,015625
	-0,000000	-1,078125	-0,000000
	-0,000000	-1,046875	0,015625
	-0,000000	-1,078125	-0,015625
	-0,000000	-1,062500	-0,000000
	0,015625	-1,062500	-0,000000
	0,015625	-1,046875	-0,015625
	0,015625	-1,062500	-0,000000
	-0,000000	-1,093750	0,015625
	0,078125	-0,968750	0,062500
	0,078125	-1,015625	0,093750
	0,031250	-1,031250	0,046875
	-0,031250	-1,093750	-0,000000
	-0,000000	-1,062500	-0,015625
	-0,000000	-1,062500	-0,000000
	0,015625	-1,062500	0,015625
	-0,015625	-1,031250	-0,000000
	0,015625	-1,046875	-0,015625
	-0,000000	-1,062500	-0,000000
	0,031250	-1,031250	0,062500
	0,031250	-1,046875	0,015625
	-0,000000	-1,031250	-0,000000
	0,031250	-1,046875	0,015625
	-0,000000	-1,078125	-0,000000
	-0,000000	-1,062500	-0,015625
	-0,000000	-1,062500	-0,015625
	0,015625	-1,062500	-0,000000
	-0,000000	-1,062500	-0,000000
	-0,000000	-1,062500	-0,015625
	0,046875	-1,031250	0,015625
	0,031250	-1,046875	0,031250
	0,015625	-1,062500	-0,000000
	0,015625	-1,062500	0,031250
	-0,000000	-1,078125	0,015625
	-0,000000	-1,078125	-0,000000
	0,031250	-1,078125	-0,000000
	0,031250	-1,046875	-0,000000
	0,046875	-1,062500	-0,015625
	-0,000000	-1,046875	-0,000000
	0,031250	-1,015625	0,046875
	0,031250	-1,046875	0,015625
	-0,000000	-1,062500	0,015625
	0,031250	-1,046875	0,015625
	0,031250	-1,046875	0,031250
	0,015625	-1,062500	-0,000000
	0,015625	-1,062500	0,015625
	0,015625	-1,046875	-0,000000
	-0,000000	-1,078125	-0,000000
	0,015625	-1,062500	0,015625
	0,015625	-1,031250	0,031250
	0,015625	-1,046875	0,015625
	-0,000000	-1,062500	-0,000000
	0,015625	-1,062500	-0,000000
	0,015625	-1,046875	-0,000000
	-0,000000	-1,093750	-0,015625
	0,015625	-1,046875	0,015625
	0,031250	-1,046875	-0,000000
	0,015625	-1,046875	-0,000000
	-0,000000	-1,078125	-0,015625
	0,015625	-1,062500	0,015625
	0,015625	-1,046875	0,015625
	0,015625	-1,078125	-0,000000
	0,015625	-1,062500	0,031250
	-0,015625	-1,031250	0,031250
	0,015625	-1,046875	-0,015625
	-0,000000	-1,062500	0,046875
	0,015625	-1,078125	-0,000000
	0,031250	-1,062500	-0,000000
	-0,000000	-1,046875	0,031250
	0,015625	-1,062500	-0,031250
	0,015625	-1,062500	0,015625
	0,031250	-1,046875	-0,015625
	0,015625	-1,062500	0,015625
	0,015625	-1,046875	-0,015625
	-0,015625	-1,031250	0,031250
	0,031250	-1,046875	0,015625
	-0,000000	-1,062500	-0,015625
	-0,000000	-1,062500	-0,000000
	-0,000000	-1,078125	0,015625
	0,031250	-1,015625	0,031250
	-0,000000	-1,046875	0,015625
	-0,015625	-1,046875	0,015625
	0,031250	-1,046875	0,015625
	-0,000000	-1,062500	0,015625
	0,015625	-1,062500	-0,000000
	-0,000000	-1,078125	-0,015625
	0,015625	-1,093750	0,015625
	0,015625	-1,046875	0,015625
	-0,000000	-1,062500	0,015625
	0,031250	-1,031250	0,031250
	-0,000000	-1,062500	0,031250
	0,015625	-1,062500	-0,000000
	0,015625	-1,046875	-0,000000
	0,031250	-1,046875	0,015625
	-0,000000	-1,078125	0,015625
	-0,015625	-1,078125	0,015625
	-0,000000	-1,078125	-0,000000
	0,031250	-1,062500	0,015625
	0,031250	-1,031250	0,015625
	-0,000000	-1,078125	0,015625
	0,015625	-1,062500	-0,000000
	0,031250	-1,078125	-0,000000
	-0,000000	-1,093750	0,015625
	0,031250	-1,046875	0,015625
	0,015625	-1,062500	0,015625
	-0,000000	-1,046875	-0,000000
	-0,000000	-1,062500	0,031250
	-0,000000	-1,062500	-0,000000
	0,031250	-1,062500	0,031250
	0,046875	-1,031250	0,062500
	-0,000000	-1,062500	0,015625
	0,015625	-1,046875	-0,015625
	0,031250	-1,078125	0,015625
	-0,000000	-1,078125	-0,000000
	-0,000000	-1,078125	0,031250
	0,015625	-1,062500	0,031250
	-0,000000	-1,062500	0,015625
	-0,000000	-1,078125	0,015625
	0,015625	-1,062500	0,031250
	0,031250	-1,046875	0,046875
	0,015625	-1,062500	0,015625
	0,031250	-1,031250	0,031250
	0,015625	-1,031250	0,031250
	-0,031250	-1,062500	0,031250
	0,031250	-1,046875	-0,000000
	0,015625	-1,031250	-0,015625
	-0,000000	-1,078125	0,031250
	0,015625	-1,062500	0,031250
	0,015625	-1,031250	0,015625
	0,015625	-1,046875	0,031250
	0,015625	-1,062500	0,015625
	0,015625	-1,062500	-0,015625
	-0,000000	-1,062500	-0,000000
	-0,000000	-1,046875	0,031250
	-0,015625	-1,062500	-0,015625
	0,015625	-1,046875	-0,000000
	0,015625	-1,046875	-0,015625
	0,015625	-1,046875	0,015625
	0,015625	-1,046875	0,031250
	0,046875	-1,000000	0,046875
	0,031250	-1,046875	0,015625
	0,031250	-1,078125	0,015625
	-0,000000	-1,093750	-0,000000
	0,015625	-1,062500	0,015625
	0,015625	-1,062500	0,015625
	0,015625	-1,093750	-0,000000
	-0,015625	-1,062500	0,031250
	0,031250	-1,078125	-0,000000
	-0,000000	-1,062500	0,015625
	0,031250	-1,015625	0,046875
	0,015625	-1,062500	-0,000000
	0,031250	-1,078125	0,015625
	-0,015625	-1,062500	0,015625
	-0,000000	-1,062500	0,031250
	0,046875	-1,046875	0,015625
	0,015625	-1,062500	-0,000000
	-0,000000	-1,062500	-0,000000
	-0,000000	-1,078125	-0,015625
	-0,000000	-1,062500	-0,015625
	0,015625	-1,062500	-0,000000
	0,015625	-1,062500	0,031250
	0,015625	-1,031250	0,015625
	0,031250	-1,062500	0,015625
	0,031250	-1,062500	-0,015625
	0,031250	-1,046875	0,015625
	-0,000000	-1,046875	0,031250
	0,015625	-1,078125	0,031250
	-0,000000	-1,062500	0,015625
	0,015625	-1,062500	-0,000000
	0,046875	-1,031250	0,046875
	-0,000000	-1,062500	0,031250
	-0,000000	-1,046875	-0,000000
	0,062500	-1,015625	0,015625
	0,015625	-1,062500	0,031250
	0,031250	-1,062500	-0,000000
	0,015625	-1,046875	0,015625
	-0,000000	-1,046875	-0,000000
	-0,000000	-1,062500	0,015625
	0,015625	-1,062500	-0,000000
	0,015625	-1,031250	0,046875
	0,031250	-1,078125	-0,015625
	-0,000000	-1,078125	0,015625
	0,015625	-1,015625	0,031250
	0,031250	-1,062500	0,015625
	-0,000000	-1,078125	0,031250
	-0,000000	-1,062500	-0,031250
	-0,015625	-1,078125	-0,000000
	0,015625	-1,078125	-0,000000
	0,015625	-1,046875	0,031250
	0,015625	-1,062500	0,015625
	0,046875	-1,062500	0,046875
	0,015625	-1,062500	-0,000000
	-0,000000	-1,062500	-0,000000
	-0,000000	-1,109375	-0,000000
	-0,000000	-1,062500	0,031250
	0,015625	-1,062500	-0,000000
	-0,000000	-1,046875	0,015625
	-0,000000	-1,078125	0,015625
	0,015625	-1,062500	0,015625
	0,031250	-1,015625	0,031250
	-0,000000	-1,062500	-0,000000
	-0,000000	-1,062500	0,015625
	-0,000000	-1,046875	0,031250
	0,015625	-1,062500	0,015625
	0,015625	-1,046875	-0,000000
	-0,000000	-1,078125	-0,000000
	0,015625	-1,062500	0,015625
	-0,000000	-1,046875	0,015625
	0,031250	-1,046875	0,015625
	0,031250	-1,031250	0,015625
	-0,015625	-1,031250	0,015625
	-0,000000	-1,062500	-0,015625
	-0,000000	-1,062500	-0,000000
	0,031250	-1,062500	-0,015625
	0,031250	-1,046875	-0,000000
	0,015625	-1,062500	0,015625
	-0,000000	-1,046875	-0,000000
	0,015625	-1,062500	0,015625
	0,015625	-1,093750	0,015625
	0,046875	-1,031250	0,015625
	0,015625	-1,015625	0,046875
	0,015625	-1,062500	-0,000000
	0,015625	-1,046875	-0,000000
	-0,000000	-1,078125	0,015625
	0,015625	-1,062500	-0,000000
	0,015625	-1,062500	-0,000000
	0,015625	-1,046875	-0,015625
	0,015625	-1,062500	0,015625
	0,015625	-1,046875	-0,000000
	0,046875	-1,015625	0,031250
	0,031250	-1,046875	-0,015625
	-0,000000	-1,046875	-0,000000
	0,031250	-1,046875	-0,000000
	-0,000000	-1,062500	0,031250
	0,015625	-1,046875	0,015625
	0,015625	-1,046875	0,015625
	0,015625	-1,093750	-0,000000
	0,031250	-1,046875	0,015625
	-0,000000	-1,046875	-0,000000
	0,062500	-1,015625	0,015625
	0,031250	-1,062500	-0,015625
	-0,000000	-1,046875	-0,000000
	0,046875	-1,015625	0,062500
	0,015625	-1,046875	-0,000000
	0,015625	-1,062500	0,015625
	-0,000000	-1,062500	-0,000000
	0,031250	-1,046875	-0,000000
	0,015625	-1,062500	-0,000000
	0,015625	-1,078125	0,015625
	0,031250	-1,031250	0,015625
	0,015625	-1,062500	0,031250
	0,015625	-1,078125	-0,015625
	-0,000000	-1,078125	-0,000000
	0,031250	-1,062500	0,015625
	0,015625	-1,062500	-0,000000
	0,015625	-1,062500	-0,000000
	-0,000000	-1,062500	-0,000000
	0,031250	-1,062500	0,015625
	-0,000000	-1,078125	0,015625
	0,015625	-1,062500	0,015625
	-0,000000	-1,062500	0,015625
	-0,031250	-1,078125	-0,015625
	0,015625	-1,062500	-0,015625
	-0,000000	-1,078125	0,015625
	0,031250	-1,046875	-0,015625
	0,015625	-1,062500	0,015625
	-0,000000	-1,046875	-0,000000
	-0,000000	-1,062500	0,015625
	-0,000000	-1,078125	0,015625
	0,031250	-1,031250	0,015625
	0,015625	-1,062500	0,031250
	-0,000000	-1,062500	0,031250
	0,015625	-1,062500	-0,000000
	-0,000000	-1,062500	0,031250
	0,015625	-1,046875	0,015625
	0,015625	-1,062500	0,015625
	0,015625	-1,046875	0,015625
	-0,015625	-1,062500	0,015625
	0,015625	-1,062500	0,015625
	0,031250	-1,015625	0,031250
	0,015625	-1,046875	0,015625
	0,015625	-1,062500	0,031250
	0,015625	-1,062500	-0,015625
	0,015625	-1,031250	0,031250
	0,015625	-1,062500	0,015625
	0,015625	-1,062500	0,015625
	-0,015625	-1,046875	0,015625
	-0,000000	-1,078125	-0,000000
	0,031250	-1,093750	0,015625
	0,031250	-1,062500	0,015625
	-0,015625	-1,078125	-0,000000
	-0,015625	-1,078125	-0,000000
	-0,000000	-1,093750	-0,000000
	-0,000000	-1,062500	-0,000000
	-0,000000	-1,062500	0,015625
	-0,015625	-1,062500	0,015625
	0,015625	-1,046875	0,031250
	0,015625	-1,062500	0,015625
	0,015625	-1,062500	-0,000000
	0,062500	-1,031250	0,031250
	0,015625	-1,062500	-0,000000
	-0,000000	-1,046875	-0,000000
	0,015625	-1,078125	0,015625
	0,015625	-1,062500	-0,000000
	0,015625	-1,062500	0,015625
	-0,015625	-1,078125	0,015625
	-0,000000	-1,078125	0,015625
	-0,000000	-1,046875	0,015625
	-0,000000	-1,046875	-0,000000
	0,031250	-1,046875	0,031250
	-0,000000	-1,062500	-0,000000
	-0,000000	-1,078125	0,046875
	-0,000000	-1,078125	-0,000000
	0,015625	-1,062500	-0,000000
	-0,000000	-1,046875	-0,015625
	-0,000000	-1,046875	-0,000000
	-0,015625	-1,078125	0,015625
	0,015625	-1,046875	-0,015625
	-0,000000	-1,062500	0,015625
	-0,000000	-1,062500	0,015625
	0,031250	-1,078125	-0,000000
	-0,031250	-1,078125	0,015625
	0,015625	-1,015625	-0,000000
	-0,000000	-1,062500	0,031250
	0,015625	-1,078125	0,015625
	-0,000000	-1,046875	0,031250
	0,015625	-1,062500	-0,015625
	-0,000000	-1,078125	-0,000000
	-0,015625	-1,062500	0,015625
	0,031250	-1,015625	0,046875
	0,015625	-1,046875	-0,000000
	-0,015625	-1,062500	-0,015625
	-0,000000	-1,046875	-0,000000
	0,015625	-1,062500	0,015625
	0,015625	-1,062500	0,015625
	0,015625	-1,062500	-0,015625
	-0,000000	-1,062500	0,015625
	0,015625	-1,046875	-0,031250
	-0,000000	-1,062500	-0,000000
	0,078125	-1,031250	0,031250
	0,015625	-1,062500	-0,000000
	0,015625	-1,078125	0,015625
	0,078125	-1,031250	0,062500
	0,015625	-1,062500	-0,000000
	0,015625	-1,062500	-0,000000
	-0,000000	-1,062500	0,015625
	-0,000000	-1,046875	-0,000000
	-0,000000	-1,046875	-0,000000
	-0,000000	-1,062500	-0,015625
	0,031250	-1,062500	0,015625
	0,031250	-1,046875	-0,000000
	-0,000000	-1,062500	-0,015625
	0,031250	-1,015625	-0,015625
	-0,000000	-1,062500	-0,000000
	-0,000000	-1,046875	-0,000000
	-0,000000	-1,078125	0,015625
	0,015625	-1,062500	-0,000000
	-0,000000	-1,031250	0,046875
	0,031250	-1,078125	-0,015625
	0,031250	-1,015625	0,031250
	-0,000000	-1,062500	-0,000000
	-0,000000	-1,062500	-0,000000
	-0,015625	-1,078125	-0,000000
	-0,015625	-1,078125	-0,000000
	0,015625	-1,046875	0,015625
	-0,000000	-1,046875	-0,000000
	-0,000000	-1,093750	0,015625
	-0,000000	-1,093750	-0,015625
	0,031250	-1,046875	0,015625
	0,062500	-1,031250	0,031250
	0,015625	-1,046875	0,015625
	-0,000000	-1,062500	0,015625
	-0,015625	-1,062500	0,015625
	0,015625	-1,046875	-0,000000
	-0,000000	-1,046875	-0,000000
	-0,000000	-1,078125	0,015625
	-0,000000	-1,078125	0,015625
	0,015625	-1,062500	-0,000000
	0,031250	-1,046875	-0,015625
	0,031250	-1,031250	-0,000000
	0,031250	-1,015625	0,031250
	0,015625	-1,046875	0,015625
	-0,000000	-1,062500	-0,000000
	-0,000000	-1,062500	0,031250
	-0,000000	-1,046875	0,015625
	0,031250	-1,062500	-0,015625
	0,015625	-1,093750	0,031250
	0,015625	-1,062500	-0,000000
	-0,000000	-1,046875	-0,015625
	0,031250	-1,015625	0,031250
	-0,000000	-1,062500	-0,000000
	-0,000000	-1,078125	-0,015625
	-0,015625	-1,062500	0,015625
	0,015625	-1,062500	-0,000000
	0,015625	-1,046875	-0,000000
	-0,000000	-1,062500	0,015625
	0,031250	-1,062500	-0,000000
	0,015625	-1,062500	0,015625
	0,015625	-1,046875	-0,000000
	0,031250	-1,015625	0,046875
	-0,000000	-1,062500	-0,000000
	0,015625	-1,062500	-0,015625
	-0,000000	-1,078125	-0,000000
	0,015625	-1,031250	-0,000000
	0,015625	-1,046875	-0,000000
	-0,000000	-1,046875	-0,000000
	-0,000000	-1,062500	-0,000000
	-0,015625	-1,062500	-0,015625
	-0,000000	-1,062500	-0,015625
	0,046875	-1,015625	-0,000000
	0,031250	-1,046875	0,015625
	0,015625	-1,078125	0,015625
	0,015625	-1,062500	-0,000000
	0,015625	-1,046875	-0,015625
	0,031250	-1,031250	-0,000000
	0,015625	-1,031250	-0,000000
	0,015625	-1,062500	-0,000000
	-0,000000	-1,062500	0,015625
	-0,000000	-1,046875	0,015625
	-0,000000	-1,062500	0,015625
	0,031250	-1,062500	-0,015625
	-0,000000	-1,062500	0,015625
	-0,015625	-1,046875	0,015625
	0,031250	-1,046875	-0,015625
	-0,000000	-1,078125	-0,000000
	-0,000000	-1,078125	0,031250
	-0,015625	-1,078125	0,015625
	0,015625	-1,031250	-0,000000
	0,015625	-1,078125	-0,000000
	0,046875	-1,031250	0,046875
	-0,000000	-1,078125	0,015625
	-0,000000	-1,031250	0,015625
	0,015625	-1,046875	0,015625
	0,015625	-1,062500	-0,000000
	-0,000000	-1,046875	-0,000000
	-0,000000	-1,078125	-0,015625
	-0,000000	-1,093750	0,015625
	0,015625	-1,078125	-0,000000
	-0,000000	-1,062500	-0,000000
	0,046875	-1,031250	0,015625
	0,031250	-1,046875	-0,000000
	0,015625	-1,046875	-0,000000
	0,078125	-1,031250	0,015625
	0,015625	-1,046875	0,015625
	-0,000000	-1,062500	0,015625
	0,015625	-1,062500	0,015625
	0,015625	-1,046875	-0,000000
	-0,000000	-1,062500	-0,000000
	0,015625	-1,062500	0,031250
	0,015625	-1,046875	-0,015625
	-0,000000	-1,078125	-0,015625
	0,015625	-1,046875	-0,000000
	0,015625	-1,062500	-0,015625
	0,015625	-1,078125	-0,000000
	0,015625	-1,078125	-0,000000
	-0,000000	-1,046875	-0,000000
	0,015625	-1,062500	-0,015625
	-0,015625	-1,046875	0,015625
	0,031250	-1,062500	-0,000000
	0,031250	-1,046875	0,031250
	-0,000000	-1,062500	-0,015625
	0,031250	-1,062500	0,015625
	-0,000000	-1,062500	-0,000000
	0,015625	-1,046875	-0,015625
	0,015625	-1,046875	-0,000000
	-0,000000	-1,062500	0,015625
	0,031250	-1,046875	0,015625
	0,015625	-1,062500	-0,000000
	-0,000000	-1,046875	-0,015625
	0,031250	-1,015625	0,015625
	0,015625	-1,062500	-0,000000
	0,015625	-1,046875	0,031250
	0,015625	-1,046875	0,015625
	0,031250	-1,046875	0,015625
	0,015625	-1,078125	-0,000000
	0,015625	-1,046875	0,015625
	0,015625	-1,046875	0,015625
	0,015625	-1,046875	0,015625
	0,015625	-1,062500	-0,000000
	0,031250	-1,062500	-0,000000
	0,015625	-1,062500	0,031250
	-0,031250	-1,062500	0,015625
	0,015625	-1,046875	0,031250
	-0,000000	-1,062500	0,031250
	0,015625	-1,046875	0,015625
	-0,000000	-1,046875	0,015625
	0,015625	-1,062500	-0,000000
	-0,000000	-1,062500	0,031250
	0,015625	-1,046875	0,015625
	0,046875	-1,031250	0,062500
	0,015625	-1,062500	-0,000000
	0,015625	-1,062500	0,015625
	-0,000000	-1,062500	-0,000000
	-0,000000	-1,062500	-0,015625
	0,031250	-1,078125	0,015625
	0,015625	-1,062500	0,015625
	0,015625	-1,046875	-0,015625
	0,015625	-1,046875	-0,000000
	0,015625	-1,062500	-0,000000
	0,078125	-1,031250	0,046875
	0,015625	-1,046875	-0,031250
	0,031250	-1,046875	0,015625
	0,015625	-1,062500	0,015625
	0,031250	-1,062500	-0,015625
	0,015625	-1,046875	0,015625
	-0,000000	-1,062500	-0,000000
	-0,000000	-1,046875	-0,000000
	0,015625	-1,046875	0,015625
	0,015625	-1,046875	-0,000000
	0,031250	-1,031250	0,046875
	-0,000000	-1,046875	-0,000000
	0,015625	-1,078125	0,015625
	0,031250	-1,062500	-0,000000
	0,015625	-1,062500	-0,015625
	-0,000000	-1,062500	0,031250
	0,015625	-1,062500	-0,000000
	0,015625	-1,062500	-0,000000
	0,031250	-1,046875	-0,000000
	-0,000000	-1,062500	-0,000000
	0,031250	-1,046875	0,046875
	-0,000000	-1,062500	-0,000000
	0,031250	-1,078125	0,015625
	0,015625	-1,046875	0,031250
	-0,000000	-1,078125	0,015625
	-0,000000	-1,078125	0,031250
	-0,000000	-1,078125	0,015625
	0,031250	-1,031250	-0,000000
	0,015625	-1,062500	0,015625
	-0,000000	-1,062500	-0,000000
	0,015625	-1,031250	0,046875
	-0,015625	-1,078125	-0,000000
	0,031250	-1,046875	0,015625
	0,015625	-1,031250	0,015625
	0,031250	-1,062500	0,031250
	0,015625	-1,062500	-0,000000
	-0,015625	-1,062500	0,015625
	-0,000000	-1,062500	-0,000000
	-0,000000	-1,062500	0,015625
	0,015625	-1,031250	0,015625
	0,046875	-1,031250	0,015625
	0,046875	-1,031250	-0,015625
	-0,000000	-1,062500	0,015625
	0,046875	-1,000000	0,031250
	-0,000000	-1,062500	-0,000000
	0,015625	-1,062500	0,015625
	0,015625	-1,062500	0,031250
	0,031250	-1,062500	-0,000000
	0,015625	-1,046875	-0,000000
	0,015625	-1,046875	0,031250
	0,046875	-1,046875	0,015625
	0,015625	-1,078125	0,031250
	0,015625	-1,062500	0,031250
	-0,000000	-1,046875	0,015625
	0,031250	-1,062500	0,031250
	-0,000000	-1,062500	-0,000000
	0,015625	-1,062500	0,015625
	0,031250	-1,046875	-0,000000
	0,015625	-1,062500	0,015625
	0,015625	-1,062500	-0,000000
	0,062500	-1,015625	0,046875
	0,015625	-1,078125	-0,000000
	-0,000000	-1,078125	-0,000000
	0,031250	-1,062500	0,015625
	0,031250	-1,046875	0,015625
	-0,000000	-1,062500	-0,000000
	-0,000000	-1,046875	0,031250
	0,015625	-1,046875	0,015625
	-0,000000	-1,062500	0,015625
	-0,000000	-1,046875	0,015625
	0,031250	-1,031250	0,062500
	0,031250	-1,062500	0,031250
	-0,015625	-1,062500	0,015625
	-0,015625	-1,046875	0,015625
	0,015625	-1,093750	0,015625
	-0,000000	-1,078125	0,015625
	-0,000000	-1,093750	0,015625
	-0,000000	-1,078125	0,015625
	-0,000000	-1,062500	0,031250
	-0,000000	-1,062500	-0,000000
	0,015625	-1,078125	0,046875
	-0,000000	-1,062500	0,015625
	0,015625	-1,062500	0,015625
	-0,015625	-1,062500	0,015625
	0,031250	-1,031250	0,031250
	0,015625	-1,062500	-0,000000
	-0,000000	-1,078125	0,015625
	0,015625	-1,062500	0,015625
	-0,000000	-1,062500	0,031250
	0,015625	-1,046875	-0,000000
	0,031250	-0,968750	0,046875
	0,015625	-1,062500	-0,015625
	-0,000000	-1,062500	-0,000000
	0,046875	-1,078125	0,015625
	-0,000000	-1,078125	0,015625
	0,015625	-1,046875	0,015625
	0,015625	-1,078125	-0,000000
	0,015625	-1,062500	-0,000000
	0,015625	-1,031250	0,031250
	-0,000000	-1,078125	-0,000000
	0,046875	-1,046875	0,046875
	-0,000000	-1,046875	-0,000000
	0,015625	-1,062500	-0,000000
	0,031250	-1,062500	-0,000000
	-0,000000	-1,062500	-0,000000
	0,015625	-1,031250	0,015625
	-0,000000	-1,062500	0,015625
	0,015625	-1,062500	0,015625
	0,031250	-1,078125	-0,031250
	-0,000000	-1,046875	-0,015625
	0,015625	-1,078125	-0,000000
	0,015625	-1,062500	-0,000000
	-0,000000	-1,093750	-0,031250
	0,015625	-1,046875	-0,000000
	0,015625	-1,062500	0,031250
	-0,015625	-1,046875	0,015625
	-0,000000	-1,031250	-0,000000
	0,015625	-1,062500	-0,000000
	-0,000000	-1,062500	0,015625
	-0,000000	-1,062500	0,015625
	0,031250	-1,046875	0,031250
	0,031250	-1,093750	-0,015625
	0,015625	-1,046875	0,015625
	0,015625	-1,078125	-0,000000
	-0,015625	-1,078125	0,015625
	-0,000000	-1,046875	-0,000000
	0,015625	-1,046875	-0,015625
	-0,000000	-1,062500	-0,000000
	0,031250	-1,046875	0,015625
	-0,000000	-1,062500	-0,000000
	0,062500	-1,000000	0,031250
	0,015625	-1,062500	0,015625
	-0,000000	-1,078125	-0,000000
	-0,015625	-1,078125	-0,031250
	-0,000000	-1,046875	-0,015625
	0,015625	-1,046875	-0,000000
	0,031250	-1,062500	0,031250
	-0,000000	-1,062500	0,015625
	-0,000000	-1,093750	-0,000000
	0,015625	-1,062500	0,015625
	0,015625	-1,031250	0,031250
	0,015625	-1,046875	0,046875
	0,015625	-1,078125	0,031250
	0,062500	-1,000000	0,046875
	0,031250	-1,031250	0,015625
	-0,000000	-1,046875	-0,000000
	-0,000000	-1,046875	-0,000000
	-0,000000	-1,062500	0,015625
	0,031250	-1,062500	0,015625
	-0,000000	-1,062500	0,015625
	0,062500	-1,046875	0,031250
	0,015625	-1,031250	-0,000000
	-0,000000	-1,062500	-0,000000
	0,062500	-1,062500	-0,015625
	-0,000000	-1,078125	-0,000000
	-0,015625	-1,093750	0,015625
	0,015625	-1,046875	0,015625
	0,015625	-1,062500	0,015625
	0,015625	-1,062500	-0,000000
	-0,000000	-1,093750	0,015625
	0,046875	-1,015625	0,046875
	-0,015625	-1,078125	0,015625
	0,015625	-1,046875	0,031250
	0,015625	-1,062500	0,015625
	0,015625	-1,078125	-0,000000
	0,015625	-1,062500	0,015625
	-0,000000	-1,062500	-0,000000
	-0,000000	-1,031250	0,031250
	-0,000000	-1,078125	0,015625
	-0,015625	-1,062500	0,015625
	-0,000000	-1,031250	0,015625
	0,031250	-1,062500	-0,015625
	0,046875	-1,078125	-0,000000
	0,015625	-1,062500	0,015625
	0,015625	-1,031250	0,015625
	-0,000000	-1,078125	-0,000000
	-0,000000	-1,046875	-0,000000
	0,015625	-1,062500	0,031250
	0,015625	-1,062500	-0,000000
	-0,000000	-1,062500	-0,000000
	0,031250	-1,015625	0,046875
	0,015625	-1,046875	-0,000000
	0,015625	-1,046875	0,031250
	0,031250	-1,062500	-0,000000
	-0,000000	-1,078125	-0,000000
	0,015625	-1,046875	0,015625
	-0,000000	-1,062500	0,015625
	-0,000000	-1,062500	-0,000000
	-0,000000	-1,046875	0,015625
	-0,000000	-1,046875	0,031250
	0,046875	-1,015625	0,062500
	0,015625	-1,078125	0,015625
	0,015625	-1,078125	-0,000000
	-0,000000	-1,062500	0,015625
	0,046875	-1,078125	-0,015625
	0,015625	-1,062500	0,031250
	0,015625	-1,062500	-0,000000
	0,031250	-1,078125	0,015625
	-0,000000	-1,062500	0,015625
	-0,015625	-1,078125	0,031250
	0,015625	-1,046875	0,031250
	0,031250	-1,046875	0,046875
	0,015625	-1,062500	0,015625
	0,015625	-1,062500	0,015625
	0,015625	-1,046875	-0,000000
	-0,000000	-1,046875	0,015625
	0,031250	-1,046875	-0,000000
	0,015625	-1,046875	0,015625
	0,015625	-1,062500	-0,000000
	0,015625	-1,046875	-0,000000
	0,062500	-1,031250	-0,000000
	0,015625	-1,078125	-0,000000
	0,015625	-1,046875	0,015625
	0,015625	-1,062500	-0,000000
	0,015625	-1,078125	0,031250
	0,015625	-1,093750	-0,015625
	-0,000000	-1,062500	0,015625
	-0,000000	-1,093750	0,031250
	-0,000000	-1,062500	-0,000000
	-0,000000	-1,078125	-0,000000
	0,015625	-1,000000	0,046875
	-0,000000	-1,062500	-0,015625
	-0,000000	-1,046875	-0,000000
	0,031250	-1,078125	0,015625
	-0,000000	-1,062500	0,015625
	0,015625	-1,062500	0,015625
	0,015625	-1,046875	-0,015625
	0,015625	-1,062500	-0,000000
	-0,000000	-1,078125	-0,000000
	-0,000000	-1,062500	-0,015625
	0,046875	-1,015625	0,031250
	0,015625	-1,046875	-0,000000
	-0,000000	-1,062500	-0,000000
	-0,015625	-1,078125	-0,000000
	0,015625	-1,062500	-0,015625
	0,015625	-1,046875	-0,015625
	-0,000000	-1,078125	-0,000000
	0,015625	-1,062500	-0,000000
	-0,000000	-1,078125	-0,000000
	-0,000000	-1,062500	0,015625
	0,015625	-1,031250	-0,000000
	0,015625	-1,062500	-0,015625
	0,015625	-1,078125	-0,000000
	0,031250	-1,031250	-0,000000
	0,015625	-1,015625	-0,000000
	0,031250	-1,046875	-0,015625
	0,015625	-1,062500	-0,000000
	0,015625	-1,062500	0,031250
	-0,000000	-1,062500	-0,015625
	-0,015625	-1,078125	-0,000000
	0,062500	-0,984375	0,031250
	-0,000000	-1,046875	0,031250
	-0,015625	-1,062500	0,046875
	-0,000000	-1,078125	0,015625
	-0,000000	-1,031250	0,015625
	0,015625	-1,046875	-0,000000
	0,015625	-1,046875	-0,015625
	-0,000000	-1,062500	0,015625
	0,015625	-1,062500	0,015625
	0,015625	-1,046875	0,015625
	0,031250	-1,031250	0,031250
	0,015625	-1,062500	-0,000000
	-0,000000	-1,046875	-0,000000
	0,015625	-1,078125	-0,000000
	-0,000000	-1,046875	0,046875
	-0,000000	-1,046875	-0,000000
	0,015625	-1,031250	-0,000000
	0,015625	-1,062500	-0,015625
	0,015625	-1,046875	0,015625
	0,015625	-1,046875	-0,000000
	-0,000000	-1,062500	0,031250
	-0,000000	-1,062500	-0,015625
	0,015625	-1,093750	-0,015625
	0,015625	-1,046875	0,015625
	-0,000000	-1,078125	-0,000000
	-0,000000	-1,046875	0,015625
	-0,000000	-1,078125	-0,000000
	-0,000000	-1,062500	-0,000000
	0,015625	-1,046875	-0,015625
	0,015625	-1,062500	-0,000000
	0,031250	-1,031250	0,015625
	-0,000000	-1,062500	0,015625
	0,031250	-1,062500	0,015625
	-0,000000	-1,078125	0,015625
	0,015625	-1,046875	-0,000000
	-0,000000	-1,046875	0,015625
	0,046875	-1,062500	0,015625
	0,031250	-1,078125	0,015625
	0,031250	-1,062500	-0,000000
	0,015625	-1,062500	-0,000000
	0,046875	-1,031250	0,046875
	0,015625	-1,046875	-0,000000
	0,015625	-1,046875	-0,000000
	0,031250	-1,062500	0,015625
	-0,000000	-1,062500	0,015625
	-0,000000	-1,078125	-0,000000
	0,015625	-1,046875	0,015625
	0,015625	-1,062500	0,015625
	0,015625	-1,078125	-0,000000
	0,015625	-1,062500	0,015625
	0,031250	-1,046875	0,015625
	-0,000000	-1,078125	-0,000000
	0,031250	-1,046875	0,015625
	-0,000000	-1,078125	-0,015625
	-0,000000	-1,078125	-0,000000
	0,015625	-1,046875	0,015625
	-0,000000	-1,062500	0,015625
	-0,015625	-1,062500	-0,015625
	0,015625	-1,062500	0,015625
	0,015625	-1,046875	-0,000000
	0,031250	-1,031250	0,046875
	-0,000000	-1,062500	-0,000000
	0,015625	-1,046875	-0,000000
	-0,015625	-1,062500	-0,000000
	0,015625	-1,062500	0,015625
	0,031250	-1,062500	0,015625
	0,015625	-1,078125	-0,015625
	-0,015625	-1,062500	0,031250
	-0,015625	-1,078125	-0,000000
	0,015625	-1,046875	-0,000000
	0,078125	-1,031250	0,015625
	0,015625	-1,078125	-0,000000
	0,031250	-1,078125	0,015625
	0,031250	-1,031250	0,015625
	0,015625	-1,046875	-0,000000
	-0,000000	-1,078125	0,031250
	0,031250	-1,046875	0,015625
	0,015625	-1,046875	-0,000000
	-0,000000	-1,078125	0,015625
	-0,000000	-1,062500	-0,000000
	0,031250	-1,015625	0,031250
	0,015625	-1,046875	0,015625
	-0,000000	-1,093750	-0,031250
	-0,000000	-1,062500	0,015625
	0,015625	-1,062500	-0,015625
	-0,000000	-1,062500	0,015625
	0,031250	-1,046875	-0,015625
	0,015625	-1,062500	-0,000000
	0,015625	-1,046875	-0,000000
	-0,000000	-1,062500	-0,015625
	0,046875	-1,015625	0,046875
	0,015625	-1,031250	0,015625
	0,015625	-1,093750	0,015625
	0,031250	-1,046875	-0,000000
	0,031250	-1,000000	-0,000000
	0,046875	-1,062500	-0,015625
	0,031250	-1,046875	-0,000000
	0,031250	-1,046875	0,015625
	-0,000000	-1,062500	0,015625
	0,015625	-1,062500	-0,000000
	0,062500	-1,015625	0,046875
	0,031250	-1,062500	0,015625
	0,031250	-1,062500	-0,000000
	-0,000000	-1,062500	-0,015625
	-0,000000	-1,062500	-0,000000
	0,031250	-1,046875	0,015625
	0,015625	-1,078125	0,015625
	-0,000000	-1,109375	-0,000000
	-0,000000	-1,046875	-0,000000
	-0,000000	-1,062500	-0,015625
	0,031250	-1,062500	0,046875
	0,046875	-1,031250	0,015625
	0,015625	-1,046875	0,031250
	0,015625	-1,046875	-0,015625
	0,031250	-1,046875	-0,000000
	-0,015625	-1,046875	0,015625
	-0,000000	-1,062500	0,031250
	0,015625	-1,078125	0,015625
	-0,000000	-1,078125	0,015625
	-0,015625	-1,062500	-0,000000
	0,031250	-1,015625	0,031250
	0,015625	-1,046875	0,015625
	0,015625	-1,046875	-0,015625
	0,015625	-1,062500	0,031250
	-0,000000	-1,046875	0,015625
	-0,000000	-1,062500	-0,000000
	-0,000000	-1,062500	0,031250
	0,015625	-1,046875	0,015625
	0,015625	-1,062500	0,015625
	0,015625	-1,046875	-0,000000
	0,031250	-1,015625	0,062500
	-0,015625	-1,046875	-0,000000
	-0,000000	-1,062500	0,015625
	0,015625	-1,078125	-0,015625
	-0,000000	-1,062500	0,015625
	0,015625	-1,062500	0,031250
	0,015625	-1,062500	0,015625
	-0,000000	-1,062500	-0,015625
	0,015625	-1,046875	0,015625
	0,015625	-1,031250	-0,015625
	0,046875	-1,046875	-0,000000
	0,015625	-1,062500	0,031250
	0,015625	-1,046875	0,031250
	-0,015625	-1,062500	-0,000000
	-0,000000	-1,062500	-0,000000
	0,031250	-1,062500	0,015625
	-0,000000	-1,078125	-0,000000
	0,015625	-1,062500	0,015625
	-0,000000	-1,062500	0,031250
	0,015625	-1,046875	-0,015625
	0,015625	-1,062500	-0,000000
	0,015625	-1,062500	0,015625
	-0,000000	-1,078125	-0,000000
	0,031250	-1,062500	-0,000000
	0,015625	-1,062500	0,015625
	-0,000000	-1,078125	0,015625
	0,031250	-1,093750	0,015625
	-0,015625	-1,078125	-0,000000
	-0,015625	-1,078125	-0,000000
	-0,000000	-1,062500	-0,015625
	0,031250	-1,046875	0,031250
	-0,000000	-1,046875	-0,015625
	-0,000000	-1,078125	0,015625
	-0,015625	-1,078125	-0,000000
	-0,000000	-1,062500	0,015625
	-0,000000	-1,062500	-0,000000
	-0,000000	-1,062500	0,031250
	-0,000000	-1,046875	-0,000000
	-0,015625	-1,062500	-0,000000
	0,015625	-1,062500	0,015625
	0,015625	-1,031250	0,031250
	0,031250	-1,078125	-0,000000
	0,046875	-1,062500	0,015625
	0,015625	-1,078125	-0,015625
	-0,015625	-1,046875	-0,000000
	0,031250	-1,062500	0,015625
	0,015625	-1,062500	-0,000000
	0,015625	-1,062500	-0,000000
	-0,000000	-1,078125	0,015625
	-0,000000	-1,078125	0,015625
	-0,000000	-1,062500	-0,000000
	0,015625	-1,046875	-0,000000
	0,015625	-1,062500	-0,000000
	0,015625	-1,078125	0,031250
	0,031250	-1,062500	0,015625
	0,031250	-1,046875	-0,000000
	-0,000000	-1,062500	0,031250
	0,015625	-1,062500	-0,015625
	0,015625	-1,078125	0,015625
	-0,000000	-1,062500	-0,000000
	0,031250	-1,031250	0,031250
	-0,000000	-1,093750	-0,015625
	0,031250	-1,078125	0,031250
	-0,000000	-1,062500	0,031250
	0,015625	-1,046875	0,015625
	0,015625	-1,078125	-0,000000
	-0,000000	-1,078125	0,015625
	-0,000000	-1,078125	0,015625
	0,031250	-1,078125	-0,000000
	0,062500	-1,062500	-0,015625
	0,031250	-1,015625	0,015625
	-0,000000	-1,062500	0,015625
	0,015625	-1,062500	0,015625
	0,015625	-1,062500	-0,015625
	0,015625	-1,031250	0,015625
	-0,000000	-1,046875	0,015625
	0,031250	-1,062500	0,031250
	-0,015625	-1,062500	-0,000000
	-0,000000	-1,062500	0,015625
	-0,000000	-1,062500	0,031250
	-0,000000	-1,046875	-0,015625
	0,015625	-1,046875	0,015625
	0,015625	-1,062500	0,015625
	-0,015625	-1,062500	0,015625
	0,015625	-1,062500	-0,000000
	-0,000000	-1,046875	0,015625
	-0,000000	-1,078125	0,015625
	0,015625	-1,062500	0,015625
	0,015625	-1,046875	0,015625
	0,015625	-1,046875	-0,000000
	0,031250	-1,015625	0,015625
	-0,000000	-1,062500	-0,000000
	-0,000000	-1,062500	-0,015625
	-0,015625	-1,046875	0,015625
	0,031250	-1,046875	0,015625
	0,015625	-1,046875	-0,000000
	0,015625	-1,062500	0,031250
	-0,031250	-1,078125	-0,000000
	0,015625	-1,062500	-0,000000
	-0,000000	-1,046875	-0,000000
	0,031250	-1,000000	0,015625
	-0,000000	-1,062500	0,015625
	0,015625	-1,046875	0,015625
	-0,000000	-1,078125	0,015625
	-0,015625	-1,046875	-0,000000
	-0,000000	-1,046875	-0,015625
	0,015625	-1,046875	-0,015625
	-0,000000	-1,046875	-0,015625
	0,015625	-1,078125	-0,015625
	-0,000000	-1,062500	-0,000000
	0,015625	-1,078125	-0,000000
	-0,000000	-1,046875	-0,000000
	0,015625	-1,062500	-0,000000
	0,046875	-1,046875	-0,000000
	0,015625	-1,062500	-0,015625
	-0,000000	-1,062500	-0,000000
	-0,000000	-1,078125	-0,000000
	-0,000000	-1,078125	-0,000000
	-0,000000	-1,062500	-0,000000
	-0,000000	-1,046875	0,015625
	0,046875	-1,031250	0,031250
	-0,000000	-1,046875	-0,000000
	0,015625	-1,046875	0,015625
	-0,015625	-1,062500	0,015625
	-0,000000	-1,093750	0,031250
	0,015625	-1,046875	0,031250
	-0,000000	-1,062500	-0,000000
	-0,000000	-1,062500	-0,000000
	0,015625	-1,046875	-0,000000
	0,031250	-1,078125	0,015625
	0,062500	-1,031250	0,031250
	-0,000000	-1,078125	-0,000000
	-0,000000	-1,062500	-0,000000
	-0,000000	-1,093750	-0,000000
	0,015625	-1,046875	-0,015625
	0,015625	-1,062500	-0,000000
	0,015625	-1,062500	-0,000000
	0,015625	-1,062500	0,015625
	0,031250	-1,062500	0,015625
	0,015625	-1,062500	-0,000000
	-0,000000	-1,031250	0,015625
	0,015625	-1,031250	0,015625
	-0,000000	-1,062500	-0,000000
	-0,000000	-1,078125	-0,000000
	0,015625	-1,062500	-0,015625
	0,031250	-1,062500	-0,000000
	-0,000000	-1,062500	0,031250
	0,015625	-1,046875	0,015625
	0,015625	-1,046875	0,031250
	0,015625	-1,031250	0,015625
	0,015625	-1,046875	0,046875
	0,015625	-1,031250	-0,000000
	0,046875	-1,062500	0,031250
	0,015625	-1,062500	-0,015625
	0,015625	-1,078125	-0,000000
	-0,000000	-1,062500	-0,015625
	0,015625	-1,062500	-0,015625
	-0,015625	-1,031250	-0,000000
	-0,000000	-1,078125	-0,015625
	-0,000000	-1,046875	0,015625
	0,062500	-1,046875	0,015625
	0,015625	-1,062500	-0,015625
	0,015625	-1,078125	0,015625
	0,046875	-1,000000	0,062500
	0,015625	-1,062500	0,015625
	-0,000000	-1,078125	-0,000000
	0,015625	-1,062500	0,015625
	-0,015625	-1,078125	-0,000000
	0,015625	-1,046875	-0,000000
	-0,000000	-1,062500	-0,000000
	0,031250	-1,046875	0,015625
	0,078125	-0,984375	0,109375
	-0,000000	-1,078125	-0,000000
	0,015625	-1,062500	0,015625
	-0,000000	-1,046875	-0,000000
	-0,000000	-1,046875	0,031250
	-0,000000	-1,062500	0,015625
	-0,015625	-1,078125	-0,000000
	0,031250	-1,078125	0,031250
	-0,000000	-1,093750	-0,015625
	-0,000000	-1,062500	-0,000000
	-0,000000	-1,046875	-0,031250
	0,015625	-1,046875	0,031250
	0,015625	-1,046875	0,031250
	0,031250	-1,078125	-0,000000
	-0,015625	-1,078125	0,015625
	-0,000000	-1,078125	0,031250
	0,015625	-1,062500	-0,000000
	0,015625	-1,078125	0,015625
	-0,000000	-1,046875	-0,000000
	0,062500	-1,031250	0,046875
	-0,000000	-1,046875	0,015625
	0,015625	-1,046875	-0,015625
	-0,000000	-1,062500	0,015625
	0,015625	-1,062500	0,015625
	-0,000000	-1,078125	-0,000000
	0,015625	-1,062500	0,015625
	0,015625	-1,000000	-0,000000
	-0,000000	-1,062500	-0,000000
	0,015625	-1,062500	-0,000000
	0,031250	-1,031250	0,015625
	0,015625	-1,109375	-0,000000
	-0,000000	-1,046875	-0,000000
	-0,015625	-1,062500	-0,000000
	-0,000000	-1,046875	-0,000000
	-0,000000	-1,062500	-0,000000
	-0,000000	-1,046875	0,031250
	0,015625	-1,062500	-0,015625
	-0,000000	-1,093750	-0,000000
	-0,000000	-1,062500	0,015625
	-0,000000	-1,062500	0,015625
	0,015625	-1,062500	0,015625
	0,031250	-1,062500	0,015625
	-0,000000	-1,046875	0,031250
	-0,000000	-1,078125	0,015625
	-0,000000	-1,062500	0,015625
	-0,000000	-1,062500	-0,015625
	-0,015625	-1,062500	0,015625
	-0,000000	-1,062500	-0,000000
	0,015625	-1,062500	0,015625
	0,046875	-1,031250	0,015625
	0,015625	-1,046875	-0,031250
	0,015625	-1,062500	0,015625
	-0,015625	-1,062500	0,031250
	-0,015625	-1,062500	0,015625
	-0,000000	-1,062500	0,031250
	0,015625	-1,046875	0,015625
	-0,000000	-1,046875	0,015625
	-0,000000	-1,093750	-0,015625
	0,031250	-1,062500	0,031250
	0,046875	-1,078125	0,046875
	0,031250	-1,046875	-0,015625
	-0,000000	-1,062500	-0,000000
	-0,015625	-1,078125	0,015625
	-0,015625	-1,062500	-0,000000
	-0,000000	-1,046875	0,015625
	0,015625	-1,062500	0,015625
	-0,000000	-1,062500	-0,000000
	-0,000000	-1,062500	-0,000000
	-0,015625	-1,078125	-0,000000
	0,015625	-1,078125	-0,015625
	-0,000000	-1,062500	-0,015625
	0,015625	-1,078125	-0,000000
	0,031250	-1,046875	0,015625
	0,015625	-1,078125	-0,000000
	0,015625	-1,062500	0,015625
	0,015625	-1,078125	-0,000000
	0,015625	-1,062500	-0,000000
	0,015625	-1,062500	-0,000000
	0,015625	-1,062500	-0,015625
	0,046875	-1,031250	0,031250
	0,031250	-1,062500	0,015625
	0,015625	-1,046875	-0,000000
	-0,000000	-1,046875	-0,000000
	-0,000000	-1,062500	-0,000000
	-0,000000	-1,078125	0,015625
	-0,000000	-1,078125	0,015625
	-0,000000	-1,078125	-0,000000
	-0,015625	-1,062500	0,015625
	-0,000000	-1,046875	-0,015625
	0,046875	-1,062500	0,031250
	-0,000000	-1,078125	0,015625
	-0,015625	-1,078125	-0,031250
	0,046875	-0,984375	0,046875
	-0,000000	-1,062500	-0,000000
	0,015625	-1,046875	0,015625
	0,015625	-1,078125	-0,000000
	-0,000000	-1,062500	-0,015625
	0,015625	-1,062500	0,015625
	0,031250	-1,062500	0,015625
	-0,000000	-1,062500	-0,000000
	0,015625	-1,078125	0,015625
	0,015625	-1,031250	0,031250
	0,015625	-1,046875	-0,000000
	0,015625	-1,078125	0,015625
	0,031250	-1,062500	-0,015625
	0,015625	-1,046875	-0,015625
	-0,000000	-1,078125	-0,031250
	0,015625	-1,062500	-0,000000
	0,015625	-1,046875	-0,000000
	0,062500	-1,031250	0,046875
	0,015625	-1,062500	-0,000000
	-0,000000	-1,046875	-0,000000
	0,015625	-1,046875	0,015625
	-0,015625	-1,062500	-0,000000
	0,015625	-1,046875	-0,000000
	0,015625	-1,046875	0,015625
	-0,000000	-1,062500	0,015625
	-0,000000	-1,062500	-0,015625
	0,015625	-1,078125	0,015625
	0,031250	-1,031250	0,031250
	0,015625	-1,046875	-0,000000
	0,015625	-1,062500	-0,000000
	-0,000000	-1,062500	-0,015625
	0,015625	-1,046875	-0,000000
	-0,015625	-1,062500	-0,000000
	0,031250	-1,062500	-0,000000
	0,015625	-1,062500	-0,015625
	-0,000000	-1,062500	-0,000000
	-0,000000	-1,062500	-0,000000
	0,015625	-1,046875	-0,000000
	0,031250	-1,046875	0,015625
	-0,031250	-1,062500	-0,015625
	-0,000000	-1,062500	-0,000000
	-0,000000	-1,062500	-0,000000
	0,031250	-1,046875	0,015625
	-0,000000	-1,078125	-0,015625
	-0,000000	-1,078125	-0,000000
	-0,000000	-1,031250	0,015625
	-0,000000	-1,046875	-0,000000
	0,046875	-1,031250	0,015625
	-0,000000	-1,062500	-0,015625
	-0,000000	-1,078125	-0,000000
	-0,015625	-1,062500	-0,000000
	0,015625	-1,062500	-0,000000
	0,015625	-1,062500	-0,000000
	-0,000000	-1,078125	-0,015625
	0,015625	-1,062500	-0,015625
	0,015625	-1,046875	-0,000000
	-0,000000	-1,062500	-0,031250
	0,046875	-1,031250	0,031250
	-0,000000	-1,078125	-0,000000
	-0,015625	-1,046875	-0,000000
	0,015625	-1,062500	-0,015625
	0,015625	-1,046875	-0,000000
	0,015625	-1,046875	-0,015625
	0,015625	-1,031250	0,015625
	-0,000000	-1,062500	-0,015625
	-0,000000	-1,078125	-0,000000
	0,015625	-1,046875	-0,000000
	0,015625	-1,046875	0,031250
	0,062500	-1,031250	-0,000000
	-0,015625	-1,078125	-0,015625
	-0,015625	-1,093750	-0,000000
	0,015625	-1,078125	-0,031250
	0,015625	-1,062500	-0,000000
	-0,000000	-1,062500	-0,000000
	-0,000000	-1,062500	-0,000000
	0,031250	-1,062500	-0,000000
	-0,000000	-1,078125	-0,015625
	-0,000000	-1,031250	0,031250
	-0,000000	-1,078125	-0,000000
	-0,015625	-1,078125	-0,015625
	0,015625	-1,078125	-0,000000
	-0,000000	-1,046875	-0,015625
	-0,015625	-1,078125	-0,031250
	-0,000000	-1,062500	-0,000000
	0,015625	-1,078125	-0,000000
	-0,000000	-1,062500	-0,000000
	-0,000000	-1,046875	-0,015625
	0,015625	-1,031250	0,046875
	-0,015625	-1,078125	-0,000000
	-0,000000	-1,046875	-0,000000
	-0,015625	-1,078125	-0,031250
	-0,000000	-1,062500	-0,031250
	-0,000000	-1,046875	-0,000000
	-0,000000	-1,046875	-0,000000
	0,015625	-1,078125	0,015625
	-0,000000	-1,062500	-0,000000
	0,015625	-1,046875	-0,015625
	0,046875	-1,031250	-0,000000
	0,015625	-1,046875	0,031250
	0,015625	-1,062500	-0,000000
	0,046875	-1,015625	0,046875
	-0,015625	-1,046875	-0,015625
	-0,000000	-1,078125	-0,000000
	-0,015625	-1,046875	-0,015625
	0,015625	-1,046875	-0,000000
	-0,000000	-1,046875	-0,000000
	0,031250	-1,046875	-0,031250
	0,015625	-1,062500	-0,000000
	-0,000000	-1,046875	-0,015625
	-0,015625	-1,031250	-0,015625
	-0,015625	-1,062500	-0,031250
	-0,000000	-1,046875	-0,000000
	0,015625	-1,062500	-0,000000
	0,031250	-1,046875	-0,015625
	0,015625	-1,062500	-0,015625
	-0,000000	-1,093750	-0,015625
	0,015625	-1,046875	0,015625
	0,062500	-1,046875	-0,000000
	-0,000000	-1,062500	-0,000000
	0,015625	-1,062500	-0,000000
	-0,015625	-1,062500	-0,000000
	-0,000000	-1,046875	-0,015625
	-0,000000	-1,046875	-0,000000
	-0,000000	-1,046875	-0,015625
	-0,000000	-1,093750	-0,015625
	-0,015625	-1,062500	-0,031250
	-0,000000	-1,078125	-0,000000
	0,062500	-1,062500	-0,000000
	-0,000000	-1,078125	-0,000000
	0,015625	-1,078125	-0,015625
	0,031250	-1,062500	-0,015625
	0,015625	-1,078125	-0,000000
	0,015625	-1,062500	-0,000000
	-0,000000	-1,078125	0,015625
	0,015625	-1,046875	0,015625
	0,015625	-1,078125	-0,000000
	-0,000000	-1,062500	-0,031250
	0,015625	-1,062500	-0,015625
	-0,015625	-1,062500	-0,000000
	0,015625	-1,093750	-0,031250
	0,015625	-1,078125	-0,000000
	-0,046875	-1,078125	-0,015625
	-0,000000	-1,062500	0,031250
	-0,000000	-1,062500	0,015625
	0,015625	-1,046875	-0,000000
	-0,000000	-1,062500	0,031250
	0,031250	-1,046875	0,031250
	0,031250	-1,000000	0,062500
	0,015625	-1,062500	0,015625
	0,015625	-1,046875	-0,015625
	0,015625	-1,046875	-0,000000
	0,015625	-1,062500	0,015625
	0,031250	-1,062500	0,015625
	0,031250	-1,078125	0,046875
	-0,000000	-1,046875	0,031250
	0,015625	-1,046875	0,015625
	-0,000000	-1,062500	0,015625
	0,046875	-1,015625	0,062500
	-0,000000	-1,062500	0,015625
	0,015625	-1,046875	-0,000000
	0,015625	-1,078125	0,015625
	0,015625	-1,046875	-0,000000
	-0,000000	-1,078125	-0,015625
	-0,000000	-1,062500	-0,000000
	0,015625	-1,046875	-0,000000
	-0,015625	-1,046875	0,031250
	0,015625	-1,062500	-0,000000
	0,031250	-1,046875	0,015625
	0,015625	-1,062500	0,015625
	0,015625	-1,046875	-0,000000
	-0,015625	-1,078125	0,015625
	0,015625	-1,046875	0,031250
	-0,015625	-1,078125	0,031250
	0,015625	-1,062500	0,031250
	0,015625	-1,031250	-0,000000
	0,015625	-1,046875	-0,000000
	-0,015625	-1,046875	0,015625
	0,046875	-1,031250	0,046875
	-0,015625	-1,062500	0,015625
	-0,000000	-1,093750	0,046875
	0,031250	-1,078125	0,015625
	0,015625	-1,046875	0,015625
	-0,000000	-1,046875	0,015625
	-0,015625	-1,046875	-0,000000
	-0,000000	-1,046875	-0,000000
	-0,015625	-1,062500	-0,015625
	0,015625	-1,062500	-0,000000
	0,031250	-1,046875	0,078125
	0,015625	-1,078125	0,015625
	0,031250	-1,062500	0,015625
	-0,000000	-1,046875	-0,000000
	0,015625	-1,062500	0,015625
	-0,000000	-1,078125	0,046875
	-0,000000	-1,062500	0,046875
	-0,000000	-1,046875	0,046875
	0,015625	-1,031250	0,046875
	0,015625	-1,062500	0,031250
	0,031250	-1,015625	0,062500
	0,015625	-1,015625	0,031250
	-0,000000	-1,062500	0,015625
	0,015625	-1,015625	0,062500
	0,031250	-1,062500	0,015625
	-0,000000	-1,078125	0,015625
	-0,000000	-1,062500	0,031250
	0,015625	-1,078125	0,015625
	0,015625	-1,062500	-0,000000
	-0,000000	-1,078125	0,015625
	0,046875	-1,046875	0,062500
	-0,000000	-1,062500	-0,000000
	0,015625	-1,046875	0,031250
	-0,015625	-1,046875	0,031250
	0,015625	-1,046875	0,031250
	-0,000000	-1,046875	0,015625
	-0,000000	-1,046875	0,015625
	-0,000000	-1,062500	0,015625
	0,031250	-1,062500	-0,015625
	0,015625	-1,046875	0,046875
	0,031250	-1,031250	0,093750
	0,015625	-1,031250	0,015625
	0,015625	-1,062500	0,031250
	-0,000000	-1,093750	-0,000000
	0,015625	-1,062500	0,031250
	0,015625	-1,062500	0,031250
	0,031250	-1,046875	-0,000000
	-0,000000	-1,093750	-0,000000
	-0,000000	-1,062500	-0,015625
	-0,000000	-1,093750	0,015625
	0,031250	-1,046875	0,015625
	0,015625	-1,015625	0,031250
	-0,000000	-1,062500	0,015625
	-0,015625	-1,093750	-0,000000
	-0,015625	-1,078125	0,031250
	0,015625	-1,062500	-0,000000
	-0,000000	-1,062500	0,015625
	0,015625	-1,046875	-0,000000
	0,015625	-1,046875	0,015625
	0,015625	-1,062500	0,031250
	0,015625	-1,046875	0,015625
	-0,000000	-1,078125	-0,000000
	-0,000000	-1,078125	0,031250
	-0,000000	-1,046875	0,015625
	0,015625	-1,046875	0,015625
	-0,000000	-1,062500	-0,015625
	-0,000000	-1,062500	-0,000000
	-0,015625	-1,062500	0,031250
	-0,000000	-1,078125	0,031250
	-0,015625	-1,046875	0,031250
	0,078125	-1,031250	0,093750
	0,015625	-1,062500	-0,000000
	0,015625	-1,062500	-0,000000
	-0,000000	-1,062500	-0,015625
	-0,000000	-1,062500	0,015625
	0,015625	-1,062500	0,015625
	0,015625	-1,062500	0,015625
	-0,000000	-1,031250	0,046875
	-0,000000	-1,046875	0,031250
	-0,000000	-1,062500	0,015625
	0,031250	-1,031250	0,031250
	0,015625	-1,046875	0,015625
	-0,000000	-1,062500	-0,000000
	0,031250	-1,062500	0,031250
	-0,000000	-1,062500	-0,000000
	0,015625	-1,062500	0,015625
	0,015625	-1,062500	0,015625
	-0,000000	-1,078125	0,015625
	-0,000000	-1,046875	0,015625
	0,015625	-1,046875	0,015625
	0,015625	-1,062500	-0,000000
	-0,000000	-1,031250	0,015625
	0,015625	-1,062500	0,015625
	-0,000000	-1,078125	-0,000000
	-0,000000	-1,078125	0,031250
	0,015625	-1,062500	0,015625
	0,015625	-1,031250	0,015625
	-0,000000	-1,062500	-0,015625
	0,015625	-1,062500	0,015625
	-0,000000	-1,062500	0,015625
	0,046875	-1,031250	0,031250
	-0,015625	-1,093750	0,015625
	0,015625	-1,046875	-0,000000
	-0,000000	-1,031250	0,046875
	-0,015625	-1,062500	0,015625
	0,015625	-1,062500	-0,015625
	0,015625	-1,046875	0,015625
	0,015625	-1,078125	0,015625
	0,015625	-1,062500	0,031250
	-0,015625	-1,078125	-0,000000
	0,046875	-1,046875	0,031250
	-0,000000	-1,093750	0,015625
	-0,000000	-1,046875	-0,015625
	-0,015625	-1,062500	-0,031250
	-0,015625	-1,078125	0,015625
	-0,000000	-1,078125	-0,000000
	0,031250	-1,031250	0,015625
	0,015625	-1,062500	0,031250
	-0,000000	-1,062500	0,015625
	0,015625	-1,062500	0,031250
	0,015625	-1,046875	0,031250
	-0,015625	-1,062500	0,015625
	-0,000000	-1,062500	0,015625
	0,046875	-1,031250	0,046875
	0,015625	-1,046875	0,031250
	0,015625	-1,046875	0,015625
	-0,000000	-1,078125	0,015625
	0,015625	-1,093750	-0,000000
	-0,000000	-1,062500	0,015625
	-0,000000	-1,062500	0,031250
	0,046875	-1,031250	0,046875
	0,015625	-1,046875	0,015625
	-0,000000	-1,062500	-0,000000
	0,015625	-1,031250	0,015625
	-0,000000	-1,046875	0,015625
	-0,000000	-1,046875	0,015625
	-0,000000	-1,062500	-0,000000
	-0,000000	-1,093750	0,031250
	0,015625	-1,078125	0,015625
	-0,000000	-1,062500	0,015625
	0,031250	-1,046875	0,015625
	-0,000000	-1,062500	-0,000000
	0,015625	-1,031250	-0,000000
	-0,015625	-1,031250	-0,015625
	0,015625	-1,046875	-0,000000
	0,015625	-1,062500	0,015625
	0,015625	-1,046875	-0,000000
	0,015625	-1,046875	-0,000000
	0,015625	-1,062500	-0,000000
	0,015625	-1,046875	0,015625
	0,031250	-1,046875	0,031250
	0,015625	-1,046875	0,031250
	0,015625	-1,062500	-0,000000
	-0,000000	-1,046875	0,015625
	-0,000000	-1,078125	0,015625
	0,015625	-1,046875	0,015625
	-0,000000	-1,062500	-0,015625
	0,031250	-1,062500	-0,000000
	-0,000000	-1,062500	-0,000000
	-0,000000	-1,078125	-0,000000
	0,062500	-1,046875	0,031250
	-0,000000	-1,046875	-0,000000
	-0,000000	-1,062500	-0,015625
	0,015625	-1,046875	0,015625
	-0,000000	-1,046875	0,031250
	-0,000000	-1,062500	0,015625
	0,015625	-1,062500	-0,000000
	-0,000000	-1,078125	0,015625
	0,015625	-1,062500	0,015625
	0,015625	-1,062500	-0,000000
	0,031250	-1,015625	0,062500
	-0,000000	-1,062500	-0,000000
	0,015625	-1,062500	-0,000000
	-0,015625	-1,078125	0,031250
	-0,000000	-1,062500	-0,015625
	-0,000000	-1,078125	0,015625
	-0,000000	-1,078125	-0,015625
	0,015625	-1,062500	-0,000000
	-0,015625	-1,093750	0,015625
	0,015625	-1,046875	0,015625
	0,031250	-1,062500	0,046875
	-0,015625	-1,046875	0,031250
	-0,015625	-1,078125	-0,015625
	-0,015625	-1,078125	-0,015625
	-0,015625	-1,062500	-0,000000
	0,015625	-1,062500	-0,000000
	-0,015625	-1,078125	-0,000000
	0,015625	-1,015625	-0,031250
	-0,000000	-1,062500	-0,015625
	0,015625	-1,062500	-0,000000
	-0,000000	-1,062500	0,015625
	0,015625	-1,078125	0,031250
	-0,000000	-1,062500	0,046875
	0,015625	-1,062500	0,031250
	-0,000000	-1,078125	0,062500
	0,015625	-1,062500	0,015625
	-0,000000	-1,078125	-0,000000
	0,015625	-1,031250	0,015625
	-0,000000	-1,031250	0,015625
	0,015625	-1,046875	-0,000000
	0,062500	-1,015625	0,015625
	-0,000000	-1,031250	-0,015625
	-0,015625	-1,062500	-0,000000
	-0,000000	-1,062500	-0,015625
	0,031250	-1,062500	0,015625
	0,015625	-1,078125	0,015625
	-0,000000	-1,078125	-0,000000
	-0,015625	-1,062500	0,015625
	0,015625	-1,046875	-0,000000
	0,015625	-1,078125	-0,000000
	0,031250	-1,031250	-0,000000
	-0,000000	-1,046875	0,015625
	0,015625	-1,062500	0,015625
	-0,000000	-1,046875	0,015625
	-0,000000	-1,062500	-0,015625
	-0,015625	-1,062500	-0,000000
	-0,015625	-1,078125	-0,000000
	0,015625	-1,062500	0,031250
	-0,000000	-1,046875	-0,000000
	0,015625	-1,062500	0,015625
	0,015625	-1,046875	-0,015625
	-0,000000	-1,046875	-0,015625
	0,015625	-1,062500	-0,015625
	0,031250	-1,015625	-0,000000
	0,031250	-1,031250	0,031250
	-0,000000	-1,062500	-0,015625
	-0,000000	-1,062500	0,031250
	-0,000000	-1,093750	-0,015625
	-0,015625	-1,062500	-0,000000
	0,015625	-1,062500	-0,000000
	0,031250	-1,031250	0,046875
	-0,000000	-1,062500	-0,015625
	-0,000000	-1,078125	0,046875
	-0,000000	-1,062500	-0,000000
	-0,000000	-1,062500	0,015625
	-0,000000	-1,078125	-0,015625
	-0,000000	-1,062500	-0,015625
	-0,000000	-1,062500	0,015625
	0,015625	-1,046875	-0,000000
	0,046875	-1,062500	-0,000000
	0,046875	-1,046875	0,015625
	-0,000000	-1,046875	0,015625
	-0,015625	-1,062500	0,015625
	-0,000000	-1,062500	0,015625
	-0,000000	-1,078125	0,015625
	0,015625	-1,062500	-0,000000
	0,031250	-1,015625	-0,015625
	0,015625	-1,046875	-0,031250
	-0,000000	-1,031250	-0,015625
	-0,000000	-1,046875	-0,000000
	0,031250	-1,031250	0,015625
	0,015625	-1,046875	-0,000000
	0,015625	-1,078125	-0,015625
	0,031250	-1,062500	-0,015625
	0,015625	-1,062500	-0,015625
	0,015625	-1,062500	-0,015625
	0,015625	-1,046875	-0,000000
	0,015625	-1,046875	-0,000000
	-0,000000	-1,062500	-0,000000
	-0,000000	-1,062500	0,015625
	0,062500	-1,031250	0,031250
	0,015625	-1,046875	-0,015625
	-0,000000	-1,078125	-0,000000
	-0,000000	-1,093750	0,015625
	-0,000000	-1,062500	0,015625
	0,015625	-1,031250	0,031250
	-0,000000	-1,046875	0,015625
	0,015625	-1,078125	-0,015625
	-0,015625	-1,046875	0,015625
	0,015625	-1,062500	-0,000000
	0,062500	-1,031250	0,031250
	0,015625	-1,062500	-0,000000
	0,015625	-1,062500	0,015625
	0,015625	-1,046875	-0,015625
	0,015625	-1,078125	-0,015625
	-0,000000	-1,062500	-0,000000
	-0,000000	-1,078125	-0,000000
	0,015625	-1,062500	-0,000000
	-0,015625	-1,062500	-0,000000
	-0,000000	-1,062500	-0,031250
	0,031250	-1,046875	0,015625
	0,015625	-1,031250	-0,015625
	0,015625	-1,078125	0,015625
	-0,000000	-1,093750	-0,031250
	-0,000000	-1,062500	-0,000000
	0,015625	-1,031250	-0,015625
	0,015625	-1,046875	-0,031250
	0,015625	-1,046875	-0,000000
	-0,000000	-1,078125	-0,015625
	0,015625	-1,078125	-0,000000
	0,046875	-1,015625	0,015625
	0,015625	-1,078125	0,015625
	-0,015625	-1,062500	-0,000000
	-0,000000	-1,062500	-0,000000
	-0,000000	-1,062500	-0,000000
	0,015625	-1,062500	0,015625
	-0,000000	-1,062500	0,015625
	-0,000000	-1,062500	-0,000000
	-0,000000	-1,046875	-0,000000
	0,015625	-1,062500	-0,015625
	0,062500	-1,031250	0,046875
	-0,015625	-1,078125	0,015625
	-0,000000	-1,078125	-0,000000
	0,015625	-1,062500	-0,000000
	-0,031250	-1,078125	-0,000000
	0,031250	-1,078125	0,015625
	-0,000000	-1,046875	-0,000000
	-0,000000	-1,062500	-0,000000
	-0,000000	-1,062500	-0,000000
	0,015625	-1,078125	-0,031250
	0,015625	-1,031250	-0,015625
	0,046875	-1,046875	0,031250
	-0,000000	-1,046875	-0,015625
	0,015625	-1,031250	-0,000000
	0,015625	-1,031250	-0,000000
	0,015625	-1,078125	-0,015625
	0,015625	-1,062500	-0,000000
	-0,046875	-1,062500	-0,000000
	-0,000000	-1,046875	-0,000000
	0,015625	-1,046875	-0,015625
	-0,000000	-1,062500	-0,000000
	-0,000000	-1,046875	-0,031250
	0,015625	-1,031250	-0,015625
	-0,000000	-1,062500	-0,000000
	0,046875	-1,000000	-0,015625
	0,015625	-1,031250	-0,000000
	-0,031250	-1,046875	-0,015625
	0,031250	-1,062500	-0,015625
	0,031250	-1,046875	-0,000000
	-0,000000	-1,062500	-0,015625
	0,046875	-1,015625	-0,000000
	0,015625	-1,062500	-0,015625
	0,015625	-1,078125	-0,031250
	-0,031250	-1,062500	-0,015625
	-0,000000	-1,078125	-0,031250
	0,031250	-1,062500	-0,000000
	0,015625	-1,062500	-0,015625
	-0,000000	-1,062500	-0,015625
	0,015625	-1,062500	-0,000000
	0,015625	-1,062500	-0,000000
	0,031250	-1,046875	0,015625
	0,046875	-1,046875	-0,000000
	0,015625	-1,046875	0,015625
	0,015625	-1,046875	0,031250
	0,015625	-1,062500	-0,000000
	-0,015625	-1,093750	-0,000000
	-0,015625	-1,078125	0,015625
	0,015625	-1,078125	-0,000000
	-0,000000	-1,093750	-0,000000
	0,015625	-1,078125	-0,000000
	0,031250	-1,046875	-0,015625
	0,015625	-1,046875	-0,015625
	0,015625	-1,062500	-0,000000
	-0,000000	-1,031250	-0,000000
	0,015625	-1,046875	0,031250
	0,015625	-1,062500	-0,000000
	0,015625	-1,062500	0,015625
	-0,000000	-1,062500	-0,015625
	-0,000000	-1,046875	-0,015625
	0,015625	-1,078125	-0,015625
	0,046875	-1,031250	0,015625
	-0,000000	-1,062500	-0,000000
	0,015625	-1,078125	-0,000000
	-0,015625	-1,078125	-0,015625
	0,015625	-1,062500	-0,015625
	-0,000000	-1,078125	-0,000000
	-0,000000	-1,046875	-0,015625
	0,015625	-1,078125	-0,000000
	0,015625	-1,062500	-0,015625
	-0,000000	-1,093750	-0,000000
	0,046875	-1,031250	0,015625
	-0,000000	-1,046875	-0,015625
	0,015625	-1,062500	-0,015625
	-0,015625	-1,093750	-0,046875
	0,015625	-1,062500	-0,015625
	0,015625	-1,062500	-0,000000
	-0,015625	-1,062500	-0,015625
	0,015625	-1,078125	-0,000000
	-0,000000	-1,062500	-0,015625
	0,015625	-1,046875	0,015625
	-0,015625	-1,062500	-0,000000
	-0,015625	-1,062500	0,015625
	0,015625	-1,046875	-0,031250
	-0,000000	-1,062500	-0,000000
	-0,000000	-1,046875	-0,000000
	-0,000000	-1,078125	-0,015625
	-0,000000	-1,062500	-0,015625
	-0,000000	-1,062500	-0,000000
	-0,015625	-1,046875	0,015625
	-0,000000	-1,062500	-0,015625
	0,031250	-1,031250	0,015625
	0,031250	-1,062500	-0,015625
	-0,000000	-1,078125	-0,000000
	-0,000000	-1,062500	-0,000000
	-0,000000	-1,046875	-0,000000
	0,031250	-1,062500	-0,015625
	0,015625	-1,046875	0,015625
	0,015625	-1,062500	-0,031250
	-0,015625	-1,062500	-0,015625
	0,015625	-1,062500	-0,015625
	0,062500	-1,031250	0,015625
	-0,000000	-1,078125	-0,000000
	0,031250	-1,062500	-0,015625
	-0,000000	-1,062500	-0,015625
	0,015625	-1,046875	-0,000000
	0,015625	-1,062500	-0,000000
	-0,000000	-1,046875	-0,000000
	0,015625	-1,078125	-0,000000
	0,015625	-1,062500	-0,031250
	0,015625	-1,062500	-0,015625
	0,031250	-1,078125	-0,015625
	0,015625	-1,078125	-0,015625
	0,015625	-1,046875	0,015625
	0,015625	-1,046875	-0,000000
	-0,000000	-1,125000	-0,031250
	0,015625	-1,046875	-0,015625
	-0,000000	-1,062500	-0,000000
	-0,000000	-1,062500	-0,015625
	-0,015625	-1,078125	-0,015625
	0,015625	-1,062500	-0,000000
	0,031250	-1,046875	-0,000000
	-0,000000	-1,078125	-0,000000
	0,031250	-1,093750	0,015625
	0,031250	-1,093750	-0,000000
	0,015625	-1,062500	-0,031250
	-0,000000	-1,046875	-0,031250
	-0,000000	-1,031250	-0,000000
	-0,000000	-1,031250	-0,015625
	-0,015625	-1,031250	-0,015625
	-0,015625	-1,046875	0,015625
	0,046875	-1,000000	0,015625
	0,015625	-1,062500	-0,000000
	0,015625	-1,062500	-0,000000
	-0,000000	-1,062500	-0,015625
	-0,000000	-1,062500	-0,000000
	0,015625	-1,062500	-0,000000
	-0,015625	-1,062500	-0,015625
	0,015625	-1,078125	-0,015625
	-0,015625	-1,078125	0,031250
	0,015625	-1,078125	0,015625
	0,046875	-1,046875	0,015625
	0,046875	-1,046875	-0,000000
	0,015625	-1,062500	-0,000000
	-0,000000	-1,062500	-0,015625
	-0,000000	-1,062500	0,015625
	0,015625	-1,062500	-0,015625
	-0,000000	-1,078125	-0,015625
	-0,000000	-1,062500	0,015625
	-0,000000	-1,078125	-0,000000
	0,015625	-1,046875	0,015625
	0,046875	-1,015625	0,031250
	-0,000000	-1,062500	0,015625
	-0,015625	-1,062500	-0,000000
	0,015625	-1,078125	-0,031250
	-0,000000	-1,062500	-0,031250
	-0,000000	-1,046875	-0,031250
	0,015625	-1,078125	-0,015625
	-0,000000	-1,078125	0,015625
	0,031250	-1,062500	-0,015625
	0,015625	-1,062500	-0,000000
	0,078125	-1,015625	-0,015625
	0,015625	-1,062500	-0,015625
	-0,000000	-1,031250	-0,000000
	-0,015625	-1,078125	-0,015625
	0,046875	-1,062500	-0,000000
	-0,000000	-1,062500	-0,015625
	0,015625	-1,062500	-0,015625
	0,031250	-1,078125	-0,000000
	0,015625	-1,046875	-0,015625
	0,015625	-1,078125	-0,000000
	0,015625	-1,031250	0,015625
	0,015625	-1,046875	0,031250
	-0,000000	-1,062500	-0,015625
	-0,000000	-1,078125	0,031250
	-0,000000	-1,062500	-0,000000
	0,015625	-1,062500	-0,000000
	0,031250	-1,046875	-0,015625
	-0,015625	-1,062500	-0,000000
	-0,000000	-1,062500	-0,015625
	0,015625	-1,062500	-0,000000
	0,015625	-1,062500	-0,000000
	0,015625	-1,046875	-0,031250
	-0,000000	-1,046875	-0,000000
	-0,000000	-1,078125	-0,015625
	0,046875	-1,046875	-0,015625
	0,015625	-1,031250	-0,015625
	0,015625	-1,062500	-0,015625
	0,015625	-1,062500	0,015625
	0,015625	-1,046875	-0,000000
	0,015625	-1,078125	-0,000000
	0,062500	-1,031250	0,046875
	-0,015625	-1,078125	0,015625
	-0,000000	-1,062500	-0,000000
	0,015625	-1,046875	-0,000000
	0,015625	-1,031250	-0,000000
	-0,000000	-1,078125	-0,000000
	-0,000000	-1,062500	-0,000000
	0,015625	-1,046875	-0,015625
	-0,000000	-1,078125	-0,015625
	-0,000000	-1,062500	-0,000000
	-0,000000	-1,031250	-0,000000
	-0,000000	-1,015625	-0,000000
	0,015625	-1,062500	-0,000000
	-0,000000	-1,078125	-0,000000
	-0,000000	-1,062500	-0,000000
	0,015625	-1,046875	-0,000000
	0,031250	-1,078125	-0,031250
	0,031250	-1,031250	-0,015625
	0,031250	-1,062500	-0,015625
	-0,000000	-1,093750	-0,000000
	-0,000000	-1,062500	-0,015625
	0,015625	-1,062500	0,015625
	-0,015625	-1,062500	-0,015625
	0,031250	-1,046875	-0,000000
	0,015625	-1,031250	-0,000000
	0,015625	-1,046875	0,015625
	0,015625	-1,078125	0,015625
	-0,000000	-1,062500	0,015625
	0,015625	-1,046875	-0,015625
	0,015625	-1,062500	-0,015625
	0,046875	-1,046875	0,015625
	-0,000000	-1,062500	0,015625
	-0,000000	-1,062500	-0,000000
	0,015625	-1,031250	-0,015625
	-0,000000	-1,062500	-0,000000
	-0,000000	-1,062500	-0,031250
	-0,015625	-1,062500	-0,000000
	0,015625	-1,046875	-0,015625
	0,015625	-1,062500	-0,000000
	0,015625	-1,046875	-0,000000
	0,046875	-1,015625	0,015625
	0,031250	-1,046875	-0,000000
	-0,015625	-1,062500	-0,015625
	0,031250	-1,062500	-0,015625
	-0,000000	-1,062500	-0,015625
	-0,000000	-1,062500	-0,015625
	0,015625	-1,062500	0,015625
	-0,015625	-1,046875	-0,000000
	0,015625	-1,078125	-0,015625
	-0,000000	-1,078125	-0,000000
	0,015625	-1,078125	0,015625
	-0,000000	-1,046875	-0,031250
	-0,000000	-1,093750	-0,000000
	-0,000000	-1,062500	-0,000000
	0,015625	-1,062500	-0,031250
	-0,000000	-1,062500	-0,000000
	-0,000000	-1,078125	-0,015625
	-0,000000	-1,078125	-0,015625
	0,015625	-1,046875	-0,015625
	-0,000000	-1,031250	-0,000000
	0,062500	-0,984375	0,046875
	0,015625	-1,046875	-0,015625
	-0,000000	-1,062500	-0,000000
	0,031250	-1,046875	-0,015625
	0,015625	-1,078125	-0,031250
	0,015625	-1,031250	-0,000000
	0,015625	-1,062500	-0,015625
	-0,000000	-1,078125	-0,000000
	0,015625	-1,062500	-0,015625
	0,031250	-1,062500	-0,000000
	0,015625	-1,000000	0,046875
	-0,000000	-1,062500	0,015625
	-0,000000	-1,046875	-0,000000
	0,015625	-1,062500	0,015625
	0,015625	-1,062500	0,015625
	-0,015625	-1,078125	0,015625
	0,015625	-1,046875	-0,015625
	-0,000000	-1,062500	-0,000000
	-0,000000	-1,078125	-0,015625
	0,031250	-1,062500	-0,031250
	0,015625	-1,046875	-0,015625
	0,015625	-1,062500	0,015625
	0,015625	-1,062500	0,015625
	-0,000000	-1,062500	-0,000000
	0,015625	-1,031250	0,015625
	-0,015625	-1,062500	-0,000000
	-0,000000	-1,062500	0,015625
	-0,000000	-1,062500	-0,000000
	0,015625	-1,062500	-0,015625
	0,031250	-1,062500	-0,015625
	0,062500	-1,046875	0,015625
	0,015625	-1,062500	-0,015625
	-0,000000	-1,046875	-0,031250
	0,015625	-1,046875	-0,015625
	0,015625	-1,062500	-0,015625
	0,015625	-1,062500	-0,015625
	-0,000000	-1,093750	-0,000000
	0,015625	-1,046875	-0,015625
	-0,000000	-1,062500	-0,015625
	0,015625	-1,078125	-0,000000
	0,046875	-1,046875	0,031250
	0,031250	-1,046875	-0,000000
	-0,000000	-1,062500	0,015625
	0,031250	-1,046875	-0,000000
	0,015625	-1,046875	-0,000000
	-0,000000	-1,078125	-0,000000
	-0,000000	-1,062500	-0,000000
	0,031250	-1,078125	-0,031250
	0,015625	-1,078125	-0,015625
	0,015625	-1,062500	-0,000000
	0,015625	-1,046875	-0,015625
	-0,000000	-1,062500	-0,000000
	-0,000000	-1,062500	0,015625
	0,015625	-1,062500	-0,031250
	-0,000000	-1,062500	0,031250
	0,015625	-1,062500	0,015625
	-0,015625	-1,062500	-0,015625
	-0,000000	-1,062500	-0,015625
	0,015625	-1,046875	-0,015625
	-0,000000	-1,062500	-0,015625
	0,046875	-1,046875	0,031250
	-0,000000	-1,062500	-0,000000
	-0,015625	-1,078125	0,015625
	0,015625	-1,078125	-0,000000
	0,015625	-1,078125	-0,000000
	0,015625	-1,078125	-0,000000
	-0,000000	-1,046875	-0,000000
	-0,000000	-1,046875	-0,015625
	-0,000000	-1,062500	0,015625
	-0,015625	-1,046875	-0,015625
	0,046875	-1,015625	0,015625
	-0,000000	-1,093750	-0,015625
	-0,000000	-1,093750	0,046875
	0,031250	-1,000000	0,062500
	-0,000000	-1,062500	0,015625
	0,031250	-1,062500	-0,015625
	-0,015625	-1,046875	-0,015625
	0,015625	-1,062500	-0,000000
	-0,000000	-1,046875	-0,000000
	-0,000000	-1,046875	0,015625
	0,031250	-1,062500	0,015625
	0,031250	-1,046875	0,046875
	-0,015625	-1,078125	-0,015625
	0,015625	-1,062500	0,015625
	0,015625	-1,062500	0,015625
	-0,000000	-1,078125	0,015625
	-0,000000	-1,062500	-0,000000
	0,015625	-1,062500	-0,000000
	-0,000000	-1,078125	0,015625
	0,015625	-1,046875	-0,000000
	0,046875	-1,015625	0,015625
	0,015625	-1,062500	0,015625
	0,031250	-1,062500	-0,000000
	0,046875	-1,031250	0,015625
	-0,000000	-1,062500	-0,015625
	-0,000000	-1,062500	-0,000000
	-0,000000	-1,078125	-0,031250
	-0,000000	-1,062500	-0,000000
	0,015625	-1,031250	-0,000000
	0,015625	-1,046875	-0,015625
	0,046875	-1,015625	0,046875
	-0,000000	-1,062500	-0,000000
	0,015625	-1,062500	-0,000000
	0,015625	-1,046875	-0,015625
	0,031250	-1,062500	-0,000000
	0,015625	-1,078125	0,015625
	-0,015625	-1,078125	-0,000000
	0,031250	-1,046875	-0,046875
	-0,015625	-1,062500	-0,000000
	-0,000000	-1,062500	-0,000000
	0,062500	-1,046875	-0,000000
	0,015625	-1,062500	0,031250
	-0,000000	-1,062500	-0,015625
	-0,000000	-1,062500	-0,015625
	-0,000000	-1,062500	-0,015625
	0,015625	-1,062500	-0,000000
	0,015625	-1,062500	0,015625
	0,015625	-1,031250	-0,000000
	0,015625	-1,046875	-0,000000
	-0,000000	-1,046875	0,015625
	0,046875	-1,031250	0,031250
	0,015625	-1,062500	-0,015625
	0,031250	-1,062500	0,031250
	-0,000000	-1,078125	-0,000000
	-0,000000	-1,046875	0,015625
	0,015625	-1,078125	-0,000000
	-0,000000	-1,062500	-0,015625
	-0,000000	-1,062500	-0,000000
	0,031250	-1,062500	0,015625
	0,015625	-1,046875	0,015625
	-0,000000	-1,031250	0,031250
	0,015625	-1,046875	-0,000000
	-0,000000	-1,062500	-0,000000
	0,015625	-1,046875	-0,000000
	0,015625	-1,046875	0,015625
	0,015625	-1,046875	-0,031250
	0,015625	-1,062500	-0,000000
	-0,000000	-1,046875	-0,015625
	0,015625	-1,062500	-0,000000
	0,015625	-1,062500	0,031250
	0,031250	-1,015625	-0,000000
	0,031250	-1,062500	0,015625
	0,015625	-1,062500	-0,015625
	-0,000000	-1,078125	-0,000000
	0,015625	-1,062500	-0,000000
	-0,000000	-1,062500	-0,000000
	0,015625	-1,062500	-0,000000
	0,046875	-1,078125	0,015625
	0,031250	-1,046875	-0,015625
	0,015625	-1,046875	-0,015625
	0,015625	-1,078125	-0,000000
	0,015625	-1,078125	0,015625
	-0,000000	-1,093750	-0,015625
	-0,015625	-1,078125	-0,031250
	-0,000000	-1,046875	-0,000000
	0,015625	-1,062500	0,015625
	0,031250	-1,046875	-0,000000
	-0,000000	-1,062500	-0,031250
	0,031250	-1,078125	0,031250
	0,015625	-1,062500	-0,000000
	0,078125	-1,000000	0,046875
	-0,000000	-1,046875	-0,000000
	0,015625	-1,062500	0,015625
	0,015625	-1,078125	0,015625
	0,046875	-1,062500	-0,000000
	0,015625	-1,078125	-0,000000
	-0,000000	-1,046875	-0,000000
	0,015625	-1,062500	0,015625
	0,015625	-1,062500	0,015625
	0,015625	-1,062500	0,015625
	0,046875	-1,015625	0,015625
	0,015625	-1,046875	-0,000000
	-0,000000	-1,062500	0,015625
	0,046875	-1,015625	0,093750
	-0,000000	-1,062500	-0,015625
	0,015625	-1,062500	-0,000000
	0,031250	-1,062500	-0,015625
	0,015625	-1,062500	-0,015625
	0,015625	-1,062500	-0,000000
	0,015625	-1,046875	0,015625
	-0,000000	-1,062500	0,015625
	0,015625	-1,031250	-0,015625
	-0,000000	-1,046875	0,031250
	0,015625	-1,062500	0,015625
	0,015625	-1,062500	-0,015625
	-0,000000	-1,078125	-0,015625
	-0,000000	-1,046875	-0,000000
	0,015625	-1,062500	-0,000000
	0,031250	-1,062500	-0,015625
	0,046875	-1,062500	-0,000000
	0,031250	-1,031250	0,031250
	-0,000000	-1,078125	-0,000000
	0,015625	-1,062500	0,015625
	0,031250	-1,031250	0,031250
	0,015625	-1,062500	0,015625
	-0,000000	-1,046875	-0,015625
	-0,000000	-1,062500	-0,015625
	0,015625	-1,062500	-0,000000
	0,031250	-1,062500	-0,000000
	0,015625	-1,062500	0,015625
	0,062500	-1,046875	0,015625
	-0,000000	-1,078125	0,015625
	0,031250	-1,046875	0,015625
	0,015625	-1,046875	-0,000000
	0,015625	-1,046875	-0,015625
	0,031250	-1,046875	-0,000000
	-0,000000	-1,062500	0,031250
	0,046875	-1,062500	0,015625
	0,015625	-1,046875	0,015625
	0,015625	-1,062500	0,015625
	0,046875	-1,062500	-0,015625
	-0,000000	-1,046875	-0,015625
	-0,000000	-1,031250	-0,046875
	0,031250	-1,046875	-0,000000
	-0,000000	-1,078125	0,015625
	0,015625	-1,062500	-0,000000
	0,031250	-1,046875	0,031250
	0,015625	-1,046875	0,031250
	0,015625	-1,078125	0,031250
	0,015625	-1,046875	-0,000000
	0,046875	-1,031250	-0,000000
	-0,000000	-1,093750	-0,015625
	-0,000000	-1,078125	-0,015625
	0,015625	-1,062500	-0,031250
	-0,000000	-1,062500	-0,000000
	0,015625	-1,046875	-0,015625
	-0,000000	-1,062500	0,015625
	-0,000000	-1,078125	-0,015625
	0,015625	-1,046875	-0,000000
	0,015625	-1,078125	-0,000000
	0,031250	-1,046875	0,046875
	0,015625	-1,031250	0,015625
	-0,000000	-1,078125	-0,015625
	0,015625	-1,062500	-0,015625
	-0,000000	-1,046875	-0,000000
	0,015625	-1,046875	-0,000000
	0,015625	-1,046875	-0,000000
	-0,000000	-1,062500	-0,000000
	0,031250	-1,062500	-0,000000
	-0,000000	-1,078125	0,015625
	-0,000000	-1,046875	0,015625
	0,078125	-1,015625	0,046875
	-0,000000	-1,046875	0,015625
	-0,000000	-1,046875	0,015625
	0,046875	-1,093750	0,031250
	-0,000000	-1,062500	-0,000000
	0,015625	-1,078125	-0,015625
	0,046875	-1,046875	0,031250
	0,015625	-1,046875	-0,000000
	0,015625	-1,078125	-0,000000
	0,031250	-1,031250	0,031250
	0,015625	-1,062500	-0,000000
	0,015625	-1,093750	-0,000000
	0,031250	-1,046875	-0,000000
	0,015625	-1,078125	-0,000000
	-0,000000	-1,078125	-0,000000
	-0,000000	-1,062500	0,015625
	-0,000000	-1,062500	0,015625
	0,015625	-1,062500	0,015625
	0,015625	-1,062500	0,015625
	0,031250	-1,031250	0,046875
	0,015625	-1,062500	0,015625
	0,015625	-1,031250	-0,000000
	0,015625	-1,078125	0,015625
	-0,000000	-1,062500	-0,015625
	0,015625	-1,062500	-0,000000
	0,015625	-1,031250	-0,015625
	0,015625	-1,046875	-0,000000
	0,031250	-1,062500	-0,000000
	0,015625	-1,062500	-0,031250
	0,031250	-1,062500	-0,000000
	0,031250	-1,046875	0,046875
	-0,000000	-1,078125	-0,015625
	0,062500	-1,015625	0,015625
	0,031250	-1,046875	0,031250
	-0,000000	-1,062500	0,015625
	0,015625	-1,046875	-0,015625
	0,015625	-1,046875	0,015625
	0,015625	-1,046875	0,015625
	0,031250	-1,046875	-0,015625
	0,031250	-1,031250	0,031250
	0,031250	-1,062500	0,015625
	-0,000000	-1,078125	-0,000000
	-0,015625	-1,062500	-0,015625
	-0,000000	-1,062500	0,015625
	0,031250	-1,078125	0,015625
	0,031250	-1,062500	-0,000000
	0,015625	-1,062500	-0,015625
	0,015625	-1,062500	0,015625
	0,015625	-1,046875	-0,000000
	0,062500	-1,031250	0,015625
	0,015625	-1,078125	0,015625
	-0,000000	-1,062500	0,015625
	-0,000000	-1,062500	-0,015625
	-0,000000	-1,078125	0,015625
	0,015625	-1,031250	-0,000000
	0,031250	-1,046875	0,015625
	-0,000000	-1,031250	-0,015625
	-0,000000	-1,078125	-0,000000
	0,015625	-1,062500	-0,000000
	0,015625	-1,046875	0,046875
	0,046875	-1,062500	0,015625
	-0,000000	-1,046875	-0,031250
	0,031250	-1,078125	-0,000000
	0,031250	-1,031250	0,015625
	0,015625	-1,062500	-0,000000
	0,015625	-1,062500	0,015625
	-0,000000	-1,062500	-0,000000
	0,031250	-1,062500	-0,000000
	0,031250	-1,046875	-0,015625
	-0,000000	-1,062500	0,015625
	0,015625	-1,046875	-0,000000
	-0,000000	-1,078125	0,031250
	-0,015625	-1,062500	-0,015625
	-0,000000	-1,078125	-0,000000
	0,015625	-1,031250	-0,000000
	0,015625	-1,046875	0,031250
	-0,015625	-1,062500	-0,000000
	0,031250	-1,062500	-0,000000
	-0,000000	-1,046875	0,015625
	0,046875	-1,031250	0,031250
	-0,015625	-1,046875	0,015625
	0,015625	-1,031250	-0,015625
	-0,000000	-1,062500	-0,000000
	-0,000000	-1,062500	-0,000000
	0,015625	-1,062500	0,015625
	-0,000000	-1,046875	-0,015625
	0,015625	-1,078125	0,015625
	0,015625	-1,046875	0,015625
	0,015625	-1,046875	-0,000000
	0,015625	-1,031250	0,015625
	0,031250	-1,046875	0,015625
	-0,000000	-1,078125	0,015625
	0,031250	-1,031250	0,031250
	-0,000000	-1,062500	-0,000000
	-0,000000	-1,062500	0,015625
	-0,000000	-1,062500	-0,015625
	0,031250	-1,046875	-0,015625
	-0,000000	-1,015625	-0,015625
	0,015625	-1,046875	0,015625
	-0,000000	-1,046875	0,015625
	-0,015625	-1,062500	-0,000000
	-0,000000	-1,093750	-0,031250
	0,015625	-1,031250	-0,000000
	-0,000000	-1,062500	-0,000000
	0,015625	-1,062500	0,015625
	-0,000000	-1,078125	0,015625
	0,015625	-1,062500	-0,015625
	0,015625	-1,046875	0,031250
	0,015625	-1,046875	-0,015625
	0,046875	-1,031250	0,031250
	0,015625	-1,046875	-0,000000
	-0,000000	-1,078125	-0,000000
	-0,015625	-1,031250	0,031250
	0,015625	-1,062500	0,015625
	0,015625	-1,031250	-0,000000
	-0,000000	-1,046875	-0,000000
	-0,000000	-1,062500	0,015625
	-0,000000	-1,062500	0,015625
	0,015625	-1,062500	0,015625
	0,015625	-1,046875	-0,000000
	0,031250	-1,046875	-0,015625
	-0,000000	-1,078125	0,015625
	-0,000000	-1,078125	0,015625
	0,015625	-1,062500	-0,015625
	0,015625	-1,046875	0,015625
	-0,015625	-1,046875	-0,000000
	0,015625	-1,062500	-0,015625
	0,015625	-1,031250	-0,015625
	-0,000000	-1,062500	-0,000000
	0,015625	-1,078125	0,015625
	0,015625	-1,062500	0,015625
	0,015625	-1,078125	-0,000000
	0,046875	-1,031250	0,015625
	0,015625	-1,046875	0,031250
	-0,000000	-1,062500	-0,000000
	0,031250	-1,062500	0,031250
	0,031250	-1,062500	0,031250
	-0,000000	-1,046875	-0,000000
	-0,000000	-1,062500	-0,000000
	0,078125	-1,046875	0,031250
	-0,000000	-1,078125	-0,015625
	-0,000000	-1,062500	-0,000000
	-0,000000	-1,046875	-0,015625
	0,015625	-1,078125	-0,000000
	-0,000000	-1,046875	0,015625
	0,015625	-1,062500	0,015625
	0,015625	-1,062500	-0,000000
	0,015625	-1,062500	-0,000000
	0,015625	-1,062500	-0,000000
	0,031250	-1,046875	0,046875
	0,015625	-1,078125	-0,000000
	-0,000000	-1,046875	-0,000000
	0,031250	-1,046875	-0,000000
	0,031250	-1,062500	-0,000000
	-0,000000	-1,046875	-0,000000
	0,015625	-1,046875	-0,000000
	-0,000000	-1,062500	-0,000000
	-0,000000	-1,046875	-0,000000
	-0,000000	-1,078125	0,015625
	0,015625	-1,046875	-0,000000
	-0,015625	-1,078125	-0,015625
	-0,000000	-1,078125	-0,015625
	-0,000000	-1,062500	-0,015625
	0,015625	-1,078125	-0,015625
	0,015625	-1,062500	-0,000000
	-0,000000	-1,093750	-0,000000
	0,015625	-1,046875	-0,000000
	0,015625	-1,078125	-0,000000
	-0,000000	-1,062500	-0,000000
	0,062500	-1,031250	0,031250
	0,031250	-1,062500	-0,000000
	0,015625	-1,031250	-0,000000
	0,031250	-1,062500	-0,000000
	-0,000000	-1,046875	-0,015625
	0,015625	-1,046875	-0,015625
	-0,000000	-1,078125	0,015625
	-0,000000	-1,078125	-0,015625
	0,015625	-1,062500	0,015625
	0,015625	-1,078125	0,015625
	0,046875	-1,015625	0,015625
	-0,000000	-1,046875	0,015625
	0,015625	-1,062500	-0,015625
	-0,015625	-1,078125	0,015625
	0,031250	-1,062500	0,015625
	0,015625	-1,062500	0,015625
	0,015625	-1,046875	-0,015625
	0,015625	-1,078125	-0,000000
	0,015625	-1,062500	-0,000000
	0,015625	-1,062500	0,015625
	0,031250	-1,046875	0,031250
	0,031250	-1,046875	-0,000000
	0,031250	-1,062500	0,015625
	0,031250	-1,062500	-0,000000
	0,031250	-1,078125	-0,000000
	0,015625	-1,062500	-0,000000
	-0,015625	-1,062500	0,031250
	-0,000000	-1,078125	-0,000000
	-0,000000	-1,062500	-0,000000
	-0,000000	-1,062500	-0,000000
	0,062500	-1,015625	0,015625
	-0,015625	-1,062500	0,015625
	0,015625	-1,046875	-0,015625
	0,015625	-1,078125	-0,000000
	0,015625	-1,046875	-0,000000
	0,031250	-1,078125	-0,015625
	-0,000000	-1,078125	-0,000000
	-0,000000	-1,062500	0,015625
	-0,000000	-1,046875	-0,000000
	0,015625	-1,062500	0,015625
	0,046875	-1,031250	0,031250
	0,015625	-1,046875	-0,000000
	0,031250	-1,031250	-0,000000
	-0,000000	-1,046875	0,015625
	-0,000000	-1,062500	0,015625
	-0,000000	-1,062500	0,031250
	-0,000000	-1,062500	0,015625
	0,015625	-1,031250	0,015625
	-0,000000	-1,078125	-0,000000
	-0,000000	-1,062500	-0,000000
	0,031250	-1,031250	0,031250
	0,015625	-1,046875	0,031250
	-0,015625	-1,062500	-0,000000
	-0,015625	-1,046875	-0,000000
	0,015625	-1,046875	-0,000000
	-0,000000	-1,046875	-0,000000
	0,031250	-1,062500	-0,000000
	0,015625	-1,046875	-0,000000
	0,015625	-1,062500	0,031250
	-0,000000	-1,046875	-0,000000
	-0,015625	-1,062500	-0,000000
	0,015625	-1,046875	-0,000000
	-0,000000	-1,062500	-0,000000
	0,031250	-1,078125	0,046875
	0,031250	-1,031250	0,031250
	0,015625	-1,046875	-0,015625
	-0,000000	-1,062500	0,015625
	-0,000000	-1,062500	0,015625
	0,031250	-1,062500	-0,015625
	-0,000000	-1,062500	0,031250
	0,062500	-1,015625	0,046875
	0,015625	-1,046875	0,046875
	0,015625	-1,031250	-0,000000
	0,015625	-1,046875	0,015625
	-0,015625	-1,062500	0,031250
	-0,000000	-1,062500	0,015625
	-0,000000	-1,062500	-0,000000
	-0,015625	-1,062500	-0,000000
	-0,000000	-1,046875	0,031250
	0,015625	-1,062500	0,015625
	0,046875	-1,015625	0,046875
	0,031250	-1,046875	0,015625
	0,031250	-1,046875	0,031250
	0,015625	-1,046875	-0,000000
	0,031250	-1,046875	0,015625
	0,015625	-1,062500	-0,000000
	0,015625	-1,062500	-0,000000
	0,015625	-1,062500	-0,000000
	-0,000000	-1,062500	-0,000000
	-0,000000	-1,062500	-0,000000
	0,015625	-1,093750	-0,015625
	-0,000000	-1,062500	0,015625
	0,015625	-1,062500	0,015625
	0,046875	-1,031250	-0,000000
	0,031250	-1,062500	-0,000000
	-0,000000	-1,046875	0,015625
	0,015625	-1,062500	0,015625
	0,015625	-1,062500	0,015625
	0,031250	-1,031250	0,015625
	-0,000000	-1,062500	0,015625
	0,031250	-1,031250	0,031250
	0,031250	-1,062500	0,046875
	0,015625	-1,046875	-0,015625
	-0,015625	-1,046875	0,015625
	0,015625	-1,046875	0,015625
	-0,000000	-1,078125	0,015625
	0,015625	-1,062500	-0,000000
	0,015625	-1,062500	-0,000000
	0,015625	-1,078125	-0,000000
